wvl,flux,err
4001.77,0.1929730474948883,0.15502693880399318
4007.19,0.2277321219444275,0.0773290486638659
4012.62,0.24442528188228607,0.06523276954291858
4018.06,0.23798538744449615,0.056222304710677844
4023.5,0.21060365438461304,0.051671292717942754
4028.95,0.16948184370994568,0.04774399174461464
4034.41,0.12333882600069046,0.04727000255018743
4039.88,0.07928641140460968,0.04436671455372821
4045.35,0.04161807894706726,0.041748930757595955
4050.83,0.012065823189914227,0.03991351437436792
4056.32,-0.008944623172283173,0.024025248003014272
4061.81,-0.02190956100821495,0.02277999611435511
4067.32,-0.02869388833642006,0.020816791958115057
4072.83,-0.03288998454809189,0.02019951474618752
4078.34,-0.03944164142012596,0.020522225065606282
4083.87,-0.0528833232820034,0.019309303287488543
4089.4,-0.07485296577215195,0.019410430839470878
4094.94,-0.1027754619717598,0.020663985305024335
4100.49,-0.1303800344467163,0.02084550936514602
4106.04,-0.150458425283432,0.0182907607146185
4111.61,-0.15853118896484375,0.01820703674485571
4117.18,-0.15500862896442413,0.018800237719699617
4122.75,-0.14512991905212402,0.0182322181382892
4128.34,-0.13614864647388458,0.018532764511303975
4133.93,-0.133907288312912,0.018481947528059723
4139.53,-0.1403115838766098,0.019999276597193406
4145.14,-0.1533612459897995,0.019610643967078532
4150.75,-0.1691414713859558,0.01979835511852885
4156.38,-0.18449558317661285,0.019983571082330922
4162.01,-0.19819414615631104,0.02006848536816384
4167.65,-0.2105463445186615,0.019881625597783687
4173.29,-0.22149483859539032,0.019852791227731502
4178.95,-0.22936129570007324,0.019995184692638116
4184.61,-0.23108169436454773,0.019719237002696555
4190.28,-0.22439390420913696,0.020105044434975457
4195.95,-0.21020476520061493,0.02037939034029462
4201.64,-0.19337980449199677,0.018720348884015473
4207.33,-0.18124176561832428,0.0187232534514388
4213.03,-0.1798536628484726,0.018144755846374015
4218.74,-0.1907389909029007,0.01822468653678192
4224.45,-0.209710493683815,0.01770875836704261
4230.18,-0.2290450930595398,0.016883091121723114
4235.91,-0.24143199622631073,0.016212867001847226
4241.64,-0.24399910867214203,0.01798767194973313
4247.39,-0.23943814635276794,0.016681437660728906
4253.14,-0.23391468822956085,0.016214782253182996
4258.91,-0.2330819070339203,0.01597675335745211
4264.68,-0.23868004977703094,0.016348707419296313
4270.45,-0.2477508783340454,0.01667595797137089
4276.24,-0.2550884485244751,0.017247460387100576
4282.03,-0.25693830847740173,0.017206099356177527
4287.83,-0.2538051903247833,0.017434163527421186
4293.64,-0.2501963973045349,0.01979743672036157
4299.46,-0.25164368748664856,0.0191857510230675
4305.28,-0.2608257532119751,0.01906024828517604
4311.12,-0.27544456720352173,0.018851525828461748
4316.96,-0.2891688942909241,0.01916878609623231
4322.8,-0.2954355478286743,0.01917127153918917
4328.66,-0.29152026772499084,0.019064037409644238
4334.52,-0.28039222955703735,0.019677527429823226
4340.4,-0.2692740559577942,0.018543463947785287
4346.28,-0.2656943202018738,0.018475938123351694
4352.16,-0.2731660306453705,0.01692676294281792
4358.06,-0.289426326751709,0.01686176950765416
4363.96,-0.3078013062477112,0.016660108075984795
4369.88,-0.3211076557636261,0.016578611849160665
4375.8,-0.3252660930156708,0.015998570902426543
4381.72,-0.3211546838283539,0.016082337646747737
4387.66,-0.3132171928882599,0.015524497148570371
4393.6,-0.30640822649002075,0.015575539676397644
4399.56,-0.3032045364379883,0.015883963114356296
4405.52,-0.30261385440826416,0.013167231808791738
4411.49,-0.30129048228263855,0.013045805169043696
4417.46,-0.29594168066978455,0.013496187824000104
4423.45,-0.28515955805778503,0.01361259335465299
4429.44,-0.2697272300720215,0.014253183414071204
4435.44,-0.25127023458480835,0.01406832822693425
4441.45,-0.23063501715660095,0.014678918780345596
4447.46,-0.20714926719665527,0.015305884896925376
4453.49,-0.17914503812789917,0.015248722742579131
4459.52,-0.14580346643924713,0.015862579165907238
4465.56,-0.10814020037651062,0.014274283292565694
4471.61,-0.06915374100208282,0.014382798337414878
4477.67,-0.032416149973869324,0.014869960474206034
4483.74,-0.00021245807874947786,0.014809937117471897
4489.81,0.027560217306017876,0.01480047922437022
4495.89,0.05325120687484741,0.015147603278574477
4501.98,0.07980800420045853,0.015466030992333858
4508.08,0.10916319489479065,0.015562579725336938
4514.19,0.14139527082443237,0.018867470361364394
4520.31,0.1751135289669037,0.0185533797695509
4526.43,0.20854440331459045,0.018678738334500487
4532.56,0.24066872894763947,0.018660752078625574
4538.7,0.2711610496044159,0.018270765769917707
4544.85,0.29974958300590515,0.017301918165340744
4551.01,0.3254355490207672,0.018139544975445794
4557.17,0.3463903069496155,0.01737781366301978
4563.35,0.36098712682724,0.0166109307775668
4569.53,0.36884045600891113,0.016627005067236005
4575.72,0.3717242479324341,0.017545761240249806
4581.92,0.3728674054145813,0.017820150395847563
4588.13,0.37530484795570374,0.017794153335899916
4594.34,0.38007259368896484,0.01653965182596338
4600.57,0.3855246305465698,0.01645236474123849
4606.8,0.3882448375225067,0.016305825193422455
4613.04,0.3852251470088959,0.016644007365005768
4619.29,0.3758166432380676,0.013746517270957348
4625.55,0.3623051941394806,0.014220044971714918
4631.81,0.3486594557762146,0.015201573397405958
4638.09,0.33807167410850525,0.01671963571433356
4644.37,0.331121563911438,0.016568227686755956
4650.66,0.3252798616886139,0.016828566268619654
4656.96,0.31648001074790955,0.017212182424346485
4663.27,0.30148759484291077,0.01731947834795469
4669.59,0.279721200466156,0.017843750009133554
4675.92,0.2534334063529968,0.01798626948178088
4682.25,0.22630219161510468,0.01726727793519284
4688.59,0.20123805105686188,0.016939249803456815
4694.94,0.17917685210704803,0.01693234992649943
4701.3,0.15913839638233185,0.017060360121030838
4707.67,0.1394280344247818,0.016565202192570634
4714.05,0.11890099197626114,0.016384179488859105
4720.44,0.09731804579496384,0.01631796537606149
4726.83,0.07466495037078857,0.017890679696857013
4733.24,0.049995094537734985,0.01790278196827866
4739.65,0.021473238244652748,0.017703184857752245
4746.07,-0.012712069787085056,0.01901587471865262
4752.5,-0.05221369490027428,0.017609128418014097
4758.94,-0.09313028305768967,0.015780831058567518
4765.38,-0.1284114420413971,0.015054014756898252
4771.84,-0.15072433650493622,0.014675875817754652
4778.3,-0.15569911897182465,0.013700260930967023
4784.78,-0.1448572427034378,0.014070668972751747
4791.26,-0.1253647804260254,0.015343888366978257
4797.75,-0.10705035924911499,0.015637062353475818
4804.25,-0.09799279272556305,0.015969083448620993
4810.76,-0.10109292715787888,0.015992363683002133
4817.28,-0.11348623782396317,0.016907052921738667
4823.8,-0.12899746000766754,0.017886323203925834
4830.34,-0.14219164848327637,0.018441909283791573
4836.88,-0.15119865536689758,0.01891176984888546
4843.43,-0.15809917449951172,0.0190696695781546
4849.99,-0.16630904376506805,0.018803023652819335
4856.56,-0.17705711722373962,0.01981654189550932
4863.14,-0.1871841549873352,0.01991146806100373
4869.73,-0.189824178814888,0.019646612378331936
4876.33,-0.1777004897594452,0.01965264637671737
4882.94,-0.14712117612361908,0.019274032059220108
4889.55,-0.10036598891019821,0.018508233122392737
4896.17,-0.0447537936270237,0.01779224095783913
4902.81,0.010685981251299381,0.01826547348132662
4909.45,0.05886329710483551,0.019950849425635256
4916.1,0.09750988334417343,0.020035255265194254
4922.76,0.12835693359375,0.020535719314037675
4929.43,0.15445487201213837,0.02161559023418168
4936.11,0.1769701987504959,0.021491019142050666
4942.79,0.1935126930475235,0.021720281698261144
4949.49,0.1990930587053299,0.021046245266915578
4956.2,0.1886502504348755,0.020180789405058575
4962.91,0.16012685000896454,0.01927279827413124
4969.63,0.11576872318983078,0.018800914807238434
4976.37,0.06130293756723404,0.018414707386967828
4983.11,0.004001480992883444,0.0163065178837232
4989.86,-0.05015122517943382,0.015886145825369527
4996.62,-0.09738855063915253,0.01655750239333317
5003.39,-0.1359357386827469,0.01639713321893641
5010.17,-0.1648394912481308,0.01707451091974149
5016.95,-0.182975634932518,0.017004211093100182
5023.75,-0.18917565047740936,0.01703775357663458
5030.55,-0.18295100331306458,0.017092712800602445
5037.37,-0.16572675108909607,0.016268674324845994
5044.19,-0.1412004828453064,0.016189709495440102
5051.03,-0.11441905051469803,0.014756895647900399
5057.87,-0.09035803377628326,0.011789819370039518
5064.72,-0.07204379141330719,0.011650257815882204
5071.58,-0.05992613732814789,0.009690895890532606
5078.45,-0.05223400890827179,0.00921440660764815
5085.33,-0.04622690752148628,0.009431328647862714
5092.22,-0.03960203751921654,0.010205891063498056
5099.12,-0.03140277415513992,0.010070929395411083
5106.03,-0.022154981270432472,0.009999339149271877
5112.95,-0.013382275588810444,0.009917631425181508
5119.87,-0.006877216976135969,0.009816761088206455
5126.81,-0.003986296709626913,0.008764385262655406
5133.75,-0.005211949348449707,0.00899261156596205
5140.71,-0.009911063127219677,0.008259811924046026
5147.67,-0.016277985647320747,0.009573667784456195
5154.65,-0.02164420299232006,0.009560605111543972
5161.63,-0.023055043071508408,0.009931118470826946
5168.62,-0.018206898123025894,0.010300332607228074
5175.62,-0.006213764660060406,0.010270561320612175
5182.64,0.012079923413693905,0.010387297002401924
5189.66,0.034381672739982605,0.010952165189996586
5196.69,0.05804003030061722,0.011396189077006838
5203.73,0.0810011774301529,0.010862638493422528
5210.78,0.10237634927034378,0.010178904434681975
5217.84,0.12222850322723389,0.010513190765796735
5224.91,0.14080853760242462,0.009822496662594339
5231.98,0.1578007936477661,0.009800455916460086
5239.07,0.17229090631008148,0.00996884033246243
5246.17,0.1832224279642105,0.009967511693200157
5253.28,0.19043990969657898,0.010320017084235432
5260.39,0.1952129602432251,0.012130558942698473
5267.52,0.1999104917049408,0.011934398421042781
5274.66,0.20675335824489594,0.012323983445533468
5281.8,0.21644680202007294,0.01154607333244104
5288.96,0.22752055525779724,0.011651165273628687
5296.12,0.23674145340919495,0.012916335955160957
5303.3,0.24069495499134064,0.012239593447179549
5310.48,0.23731529712677002,0.012157412528205253
5317.67,0.22679831087589264,0.01248915304734595
5324.88,0.21114645898342133,0.011621866107055871
5332.09,0.19300800561904907,0.012942817151853863
5339.32,0.17429113388061523,0.013023468740229397
5346.55,0.15593762695789337,0.012919053484177656
5353.79,0.13839340209960938,0.012863112917100433
5361.05,0.12279663980007172,0.013012490189438711
5368.31,0.11165392398834229,0.014591932131150929
5375.58,0.1081472635269165,0.014590945314513748
5382.86,0.11465593427419662,0.0151321172066053
5390.16,0.1310720294713974,0.015562914178688577
5397.46,0.15405307710170746,0.014750268747354451
5404.77,0.17806605994701385,0.014781770272773996
5412.09,0.1975167840719223,0.014602852435396739
5419.42,0.20900775492191315,0.01429658076726325
5426.77,0.21240931749343872,0.01453945122469899
5434.12,0.2101554125547409,0.013853896941219152
5441.48,0.20535750687122345,0.013775056984385314
5448.85,0.1997731328010559,0.01390094499036426
5456.23,0.19299830496311188,0.013750471205109083
5463.62,0.18321989476680756,0.013655115938883588
5471.03,0.16892968118190765,0.012737178330092823
5478.44,0.1505117267370224,0.012482418261109686
5485.86,0.13043056428432465,0.01234198407224427
5493.29,0.11215638369321823,0.011986468333573252
5500.73,0.09834923595190048,0.011872813772902538
5508.18,0.0895443931221962,0.009089796248077401
5515.65,0.08412804454565048,0.008957285900185984
5523.12,0.07959558069705963,0.008625810692487123
5530.6,0.07412619143724442,0.008203269261841003
5538.09,0.0675763189792633,0.010029377137396813
5545.6,0.06116173416376114,0.010392738041263904
5553.11,0.05620637163519859,0.012242780363968829
5560.63,0.05270007252693176,0.012271379864175775
5568.17,0.048757560551166534,0.013536832284056643
5575.71,0.04120144993066788,0.013536552856505372
5583.26,0.02684643119573593,0.013658874519372699
5590.83,0.0036810359451919794,0.012900560718842479
5598.4,-0.028608812019228935,0.012861069502760877
5605.98,-0.06920994818210602,0.012800267961313566
5613.58,-0.11689773201942444,0.013293211673240154
5621.18,-0.1701812893152237,0.016003384409025444
5628.8,-0.22742338478565216,0.016778089724740514
5636.42,-0.28562894463539124,0.019393995114448156
5644.06,-0.3406345248222351,0.019505482354447243
5651.71,-0.3870665729045868,0.02010867551647562
5659.36,-0.41993364691734314,0.02146712629499893
5667.03,-0.4362739622592926,0.023440965634606716
5674.71,-0.4357040226459503,0.024123918105350195
5682.39,-0.42038410902023315,0.023416989678419636
5690.09,-0.3936567008495331,0.02308913203402232
5697.8,-0.35870933532714844,0.02113598364928582
5705.52,-0.3177860975265503,0.020186291831453235
5713.25,-0.27238285541534424,0.017941467006660397
5720.99,-0.22401103377342224,0.017098052594366517
5728.74,-0.17475387454032898,0.015294034970030283
5736.5,-0.12703800201416016,0.012951571531572144
5744.27,-0.08269505202770233,0.011763470364862747
5752.05,-0.04201352968811989,0.010153265475013693
5759.84,-0.0036060551647096872,0.01145881470854823
5767.65,0.034639887511730194,0.012977109220040318
5775.46,0.07373327016830444,0.013034077188886424
5783.29,0.11269766092300415,0.01250360356877875
5791.12,0.14827123284339905,0.012499984021225229
5798.97,0.17681583762168884,0.0156381090896363
5806.82,0.19604098796844482,0.018145802957879983
5814.69,0.2066548764705658,0.017459083514641986
5822.57,0.21179446578025818,0.01820952991207392
5830.45,0.21526047587394714,0.01847194863155362
5838.35,0.21919558942317963,0.019434353151604855
5846.26,0.22284413874149323,0.01944439687172405
5854.18,0.2232935130596161,0.01951397984422535
5862.11,0.21775124967098236,0.018310159010724046
5870.05,0.20595642924308777,0.01738894969421821
5878.01,0.19109532237052917,0.017824208575245797
5885.97,0.1785942167043686,0.017491843551278728
5893.94,0.1731386035680771,0.017543268875289113
5901.93,0.1759689450263977,0.017563968438306012
5909.92,0.18386174738407135,0.017560198367698968
5917.93,0.19057266414165497,0.017690470303085803
5925.95,0.18989837169647217,0.01744598344007761
5933.97,0.17871162295341492,0.016723042050225692
5942.01,0.15814843773841858,0.016806489117993706
5950.06,0.13257631659507751,0.015957224123164793
5958.12,0.10703618079423904,0.01486631161441534
5966.2,0.0848359614610672,0.014906283943984511
5974.28,0.06681983917951584,0.012084377195683242
5982.37,0.052129969000816345,0.009984308348694126
5990.48,0.04010321944952011,0.009256402563466324
5998.59,0.03148224204778671,0.00924738080798613
6006.72,0.027957314625382423,0.009310881685437285
6014.85,0.030599363148212433,0.009234830872280423
6023.0,0.038072627037763596,0.009176126028278806
6031.16,0.046247538179159164,0.008824634807347393
6039.33,0.04970817640423775,0.009973373204832634
6047.52,0.04451168701052666,0.009992600590913914
6055.71,0.03062429465353489,0.00964857237298165
6063.91,0.012486367486417294,0.010174900370993611
6072.13,-0.002799452980980277,0.01054734277736943
6080.35,-0.008647856302559376,0.0121505485710681
6088.59,-0.0021750391460955143,0.012055397434396705
6096.84,0.014619210734963417,0.012142159032133849
6105.1,0.03579279035329819,0.012348581628351204
6113.37,0.05405426770448685,0.012307064918328574
6121.65,0.06343113631010056,0.012152857114649883
6129.94,0.060756050050258636,0.012221734730021921
6138.25,0.04557707905769348,0.012152756096137952
6146.56,0.019186673685908318,0.01207717182459271
6154.89,-0.016458215191960335,0.01230714556103708
6163.23,-0.058816008269786835,0.013811204592017005
6171.58,-0.10441655665636063,0.014632658039831383
6179.94,-0.14848925173282623,0.014648680472128263
6188.31,-0.18545639514923096,0.014748589117951485
6196.69,-0.21044044196605682,0.01372397983739638
6205.09,-0.2211562842130661,0.01366435454167908
6213.5,-0.21901091933250427,0.01669018166792041
6221.91,-0.2088584452867508,0.01706625971320987
6230.34,-0.19697657227516174,0.016616895381266795
6238.78,-0.1885150969028473,0.016221882854515934
6247.23,-0.18546351790428162,0.015721734205103362
6255.7,-0.1862139105796814,0.015185806777437028
6264.17,-0.18679141998291016,0.014779994220284995
6272.66,-0.18300950527191162,0.013832226498075306
6281.16,-0.17241916060447693,0.013518353738513351
6289.67,-0.15517474710941315,0.01357801538785841
6298.19,-0.1335928738117218,0.013787029185720221
6306.72,-0.11088943481445312,0.014768379226062266
6315.26,-0.08986218273639679,0.014776042060795651
6323.82,-0.0720938965678215,0.014406183390746157
6332.38,-0.05796727165579796,0.014134641801993152
6340.96,-0.04693089425563812,0.014477928011840797
6349.55,-0.038208093494176865,0.01523608079354851
6358.15,-0.031218094751238823,0.015336838450122233
6366.77,-0.02596348710358143,0.015512224304198758
6375.39,-0.023300835862755775,0.012890814166615791
6384.03,-0.024928616359829903,0.012606678472853083
6392.68,-0.033074673265218735,0.012578644755079105
6401.34,-0.04964529722929001,0.011767645840402548
6410.01,-0.07510454952716827,0.012512001989058507
6418.7,-0.10757321864366531,0.013662730054047702
6427.39,-0.14252015948295593,0.013764455914144491
6436.1,-0.1739523559808731,0.013214315531917372
6444.82,-0.19599604606628418,0.013187311778147125
6453.55,-0.20504936575889587,0.013590295504100918
6462.29,-0.2009420394897461,0.01599870079668447
6471.04,-0.1867048144340515,0.01816800499616199
6479.81,-0.16694827377796173,0.018169413192352823
6488.59,-0.14571711421012878,0.018893571845149004
6497.38,-0.12468523532152176,0.01931784046426927
6506.18,-0.10270101577043533,0.01875120142891068
6515.0,-0.0767752081155777,0.01705603750809594
6523.82,-0.04413461312651634,0.016305042353649723
6532.66,-0.003928180783987045,0.01737973672554516
6541.51,0.04156286269426346,0.01764894203489924
6550.37,0.08738621324300766,0.017793807473275403
6559.25,0.1274024248123169,0.017642308072384042
6568.13,0.1560460329055786,0.01832619293399101
6577.03,0.17032667994499207,0.01838757417787849
6585.94,0.17037753760814667,0.01856890500920158
6594.86,0.1594056487083435,0.018697692371549123
6603.8,0.14249294996261597,0.019940563699711956
6612.74,0.12505565583705902,0.020066922327099113
6621.7,0.11118515580892563,0.01976807443690838
6630.67,0.10283247381448746,0.01802747538061951
6639.65,0.09968282282352448,0.014363343041270177
6648.65,0.09997057169675827,0.014328248451141312
6657.66,0.10168078541755676,0.014881796046445354
6666.68,0.1035100594162941,0.013340530045645494
6675.71,0.10510838776826859,0.013610265660113058
6684.75,0.10649099200963974,0.013728405121741685
6693.81,0.107087142765522,0.01538318282618237
6702.88,0.10517171025276184,0.015265135784885036
6711.96,0.09827051311731339,0.015262493850323378
6721.05,0.08447045832872391,0.021014638190548194
6730.15,0.06387225538492203,0.02230646354499112
6739.27,0.03907842934131622,0.022620126935898658
6748.4,0.014181356877088547,0.024906898248394326
6757.54,-0.007697496097534895,0.02422806780377048
6766.7,-0.026802321895956993,0.025637055685970588
6775.86,-0.04739638417959213,0.025387023345831507
6785.04,-0.07606682926416397,0.027023931863688528
6794.24,-0.11770733445882797,0.030800174843959364
6803.44,-0.17141211032867432,0.030866423479214655
6812.66,-0.22903941571712494,0.030838415500272883
6821.89,-0.2769309878349304,0.031139200327071154
6831.13,-0.3014177680015564,0.03082305746124248
6840.38,-0.2948680818080902,0.03128351758609318
6849.65,-0.2593637704849243,0.031487514255177596
6858.93,-0.20601239800453186,0.03415041109825759
6868.22,-0.14994102716445923,0.032818651931778006
6877.52,-0.10351599007844925,0.03375804623849421
6886.84,-0.07136353850364685,0.034002121605762034
6896.17,-0.04988152161240578,0.029874124606091353
6905.51,-0.030863218009471893,0.02860064162796901
6914.87,-0.007383247837424278,0.02905991855082156
6924.24,0.021728375926613808,0.02779051093145018
6933.62,0.051468104124069214,0.029050831638995318
6943.01,0.07425278425216675,0.02647318466413618
