wvl,flux,err
4001.77,-0.01858348213136196,0.0835834791842976
4007.19,-0.020140042528510094,0.0541754796178093
4012.62,-0.01818731799721718,0.04248382718834401
4018.06,-0.012166543863713741,0.04490526310597047
4023.5,-0.0037876327987760305,0.042070759901042025
4028.95,0.003689813194796443,0.03863269693658929
4034.41,0.006831970065832138,0.03619367420976399
4039.88,0.003547711530700326,0.03582230000412865
4045.35,-0.005989531986415386,0.03425320989535166
4050.83,-0.019539738073945045,0.040769931669066437
4056.32,-0.03377804905176163,0.03597410299584961
4061.81,-0.04569733515381813,0.03654771670088053
4067.32,-0.05381869152188301,0.039802042340405894
4072.83,-0.058455806225538254,0.04102115774207993
4078.34,-0.061371125280857086,0.04114972328203241
4083.87,-0.06477317214012146,0.04106734789369276
4089.4,-0.0702984556555748,0.041369385773033965
4094.94,-0.07847122848033905,0.042843218480312625
4100.49,-0.08865317702293396,0.04223487176153591
4106.04,-0.09944450110197067,0.04236218677213446
4111.61,-0.1093137264251709,0.044583817589258584
4117.18,-0.11688095331192017,0.04438186414378483
4122.75,-0.12119518965482712,0.044290189920954716
4128.34,-0.1216689944267273,0.04492702487637447
4133.93,-0.11803259700536728,0.04913569744837877
4139.53,-0.11045147478580475,0.04906304875271672
4145.14,-0.0996934324502945,0.05082228956695439
4150.75,-0.08727669715881348,0.050098743165702245
4156.38,-0.07526266574859619,0.0450621983389653
4162.01,-0.06596610695123672,0.046211947450942516
4167.65,-0.06116181239485741,0.044533597355661
4173.29,-0.06156238913536072,0.04147860052367956
4178.95,-0.06651663780212402,0.04067877912000912
4184.61,-0.07419399172067642,0.04080627194883049
4190.28,-0.08222289383411407,0.04288357639737186
4195.95,-0.08845321834087372,0.04270120804304967
4201.64,-0.09166203439235687,0.041216125366176345
4207.33,-0.09174422174692154,0.04057069407584239
4213.03,-0.08959703892469406,0.040301621149759805
4218.74,-0.08657590299844742,0.038688664319798734
4224.45,-0.08392458409070969,0.038811873345224894
4230.18,-0.08232666552066803,0.03979947077709473
4235.91,-0.08180266618728638,0.03886097642871205
4241.64,-0.08183314651250839,0.03306382034085496
4247.39,-0.08169088512659073,0.032404227091669485
4253.14,-0.08076734095811844,0.03045752563870568
4258.91,-0.07878617942333221,0.031094505543874117
4264.68,-0.07586866617202759,0.03026574230203486
4270.45,-0.0724247470498085,0.02944039439673527
4276.24,-0.06893348693847656,0.030301588741204605
4282.03,-0.06574522703886032,0.030248810087741246
4287.83,-0.06284908205270767,0.030294232321934657
4293.64,-0.05982281640172005,0.030119587291974816
4299.46,-0.05591924488544464,0.02696351066212238
4305.28,-0.05033675953745842,0.023285228601741766
4311.12,-0.04254275932908058,0.02371028147919777
4316.96,-0.03265354782342911,0.02322820840959271
4322.8,-0.02149721421301365,0.02389991378634699
4328.66,-0.01040080189704895,0.02299990593078081
4334.52,-0.0008679782622493804,0.023195746146880105
4340.4,0.00609684269875288,0.02135318168876085
4346.28,0.010236072354018688,0.02143404975466369
4352.16,0.012166901491582394,0.02158280436178154
4358.06,0.01296740397810936,0.021848933706934248
4363.96,0.013572917319834232,0.023931943811608423
4369.88,0.01429110299795866,0.023022016602697648
4375.8,0.014644897542893887,0.023702048314911336
4381.72,0.013712591491639614,0.023317274515384956
4387.66,0.010764394886791706,0.021586546895106234
4393.6,0.005876041483134031,0.02086226900510476
4399.56,9.96308444882743e-05,0.020851886380946344
4405.52,-0.004860405344516039,0.020814909566081972
4411.49,-0.007502541411668062,0.02077091989775045
4417.46,-0.007295534946024418,0.020732042051969168
4423.45,-0.005034514237195253,0.020001897220941183
4429.44,-0.002466329839080572,0.020896317915868292
4435.44,-0.001329685328528285,0.02041019302627899
4441.45,-0.0022997125051915646,0.02014845906844269
4447.46,-0.004399620927870274,0.019449472537381066
4453.49,-0.005293871741741896,0.01943429808303512
4459.52,-0.00235540303401649,0.018449560841027387
4465.56,0.005932674277573824,0.01730673350058519
4471.61,0.019024468958377838,0.017135186650525727
4477.67,0.03429683670401573,0.012886647282341216
4483.74,0.04807351157069206,0.013901764929868254
4489.81,0.057204559445381165,0.013330737472754465
4495.89,0.06050723418593407,0.015772466938554768
4501.98,0.05913021042943001,0.017024888121192263
4508.08,0.05587439611554146,0.017123761108803443
4514.19,0.05370698496699333,0.017020889918478194
4520.31,0.05428595095872879,0.017018092747366754
4526.43,0.05728360638022423,0.01723667203558328
4532.56,0.060889169573783875,0.017000246180248525
4538.7,0.06316736340522766,0.018213147963771027
4544.85,0.06347503513097763,0.01726425349808259
4551.01,0.06308701634407043,0.018694694002764838
4557.17,0.06458060443401337,0.01877306334249465
4563.35,0.07024025171995163,0.02017069769834482
4569.53,0.0803174152970314,0.020654154038662605
4575.72,0.09222262352705002,0.020618914059457864
4581.92,0.10116058588027954,0.021214727784785423
4588.13,0.10210396349430084,0.021548706205095785
4594.34,0.09220656007528305,0.0215517974705938
4600.57,0.07237590104341507,0.020371389455032037
4606.8,0.0473114512860775,0.020509660753454634
4613.04,0.023583324626088142,0.0218394899180723
4619.29,0.006989055313169956,0.020578277735786726
4625.55,0.00015835012891329825,0.021064003478121967
4631.81,0.0016527471598237753,0.023092052657393863
4638.09,0.006956442259252071,0.023253822720127035
4644.37,0.010815939866006374,0.024556265384008073
4650.66,0.00972425751388073,0.024626303392495597
4656.96,0.0032674544490873814,0.023647789759770516
4663.27,-0.006217730697244406,0.02393476578681144
4669.59,-0.01541062444448471,0.023447955965513585
4675.92,-0.022158140316605568,0.024466911640747428
4682.25,-0.02679017186164856,0.023627151403554092
4688.59,-0.03190397098660469,0.023294217111016514
4694.94,-0.0406847782433033,0.02328231636173415
4701.3,-0.054826486855745316,0.02469663582180913
4707.67,-0.07318874448537827,0.024699340359694864
4714.05,-0.09201580286026001,0.024813599646229336
4720.44,-0.10667335987091064,0.025251838432314978
4726.83,-0.11399786174297333,0.025396632264767714
4733.24,-0.11406368017196655,0.02273507526342987
4739.65,-0.11017295718193054,0.02596556171812199
4746.07,-0.10727011412382126,0.02563809256609189
4752.5,-0.10933984071016312,0.02929260683429362
4758.94,-0.11724963784217834,0.030935639034683562
4765.38,-0.1281140148639679,0.030791875345706005
4771.84,-0.13666728138923645,0.030778830170051785
4778.3,-0.13776229321956635,0.03099613287764723
4784.78,-0.12906114757061005,0.030643473432239617
4791.26,-0.11229420453310013,0.03034807069703334
4797.75,-0.09257964789867401,0.030461904486689586
4804.25,-0.0761399045586586,0.030554471308906605
4810.76,-0.06752018630504608,0.030823455339840763
4817.28,-0.06766107678413391,0.03090179050164136
4823.8,-0.07370839267969131,0.029093653392269377
4830.34,-0.08061788976192474,0.02934612285932023
4836.88,-0.08357454091310501,0.029210674779160235
4843.43,-0.08016914129257202,0.029823861608449517
4849.99,-0.0711432695388794,0.03006143404239242
4856.56,-0.05961351841688156,0.030239482623010967
4863.14,-0.04925430938601494,0.027588624848372052
4869.73,-0.0424591489136219,0.027664518166792693
4876.33,-0.03940708562731743,0.02078775826051852
4882.94,-0.038409121334552765,0.01927295029981427
4889.55,-0.03721068799495697,0.01710959886701399
4896.17,-0.034448761492967606,0.018285797230503772
4902.81,-0.030446087941527367,0.0180804877918052
4909.45,-0.026996169239282608,0.018090590258238635
4916.1,-0.026263849809765816,0.017870023445394564
4922.76,-0.029548432677984238,0.016498038503498985
4929.43,-0.036524854600429535,0.016306631255338478
4936.11,-0.04535864293575287,0.015764817205690358
4942.79,-0.053548719733953476,0.015999916013985406
4949.49,-0.05905945971608162,0.01532049282266868
4956.2,-0.06095118448138237,0.015037339044748035
4962.91,-0.05946076661348343,0.014434271695834507
4969.63,-0.05540931597352028,0.013088920643943217
4976.37,-0.049422550946474075,0.012558358830992515
4983.11,-0.04152313247323036,0.012630091296898323
4989.86,-0.031200382858514786,0.013788875060162511
4996.62,-0.01801549643278122,0.014919612930197234
5003.39,-0.0022490499541163445,0.015035987887971607
5010.17,0.014795196242630482,0.014601626610786482
5016.95,0.0310257188975811,0.015488922648269239
5023.75,0.04436654970049858,0.013499008520733068
5030.55,0.05336279422044754,0.013306129595514539
5037.37,0.05778098106384277,0.013195782323262928
5044.19,0.05838166922330856,0.013690585571479726
5051.03,0.05646568909287453,0.014324849903536219
5057.87,0.053208064287900925,0.014346356568307328
5064.72,0.04929377883672714,0.018030331226262058
5071.58,0.044985417276620865,0.01868774664302306
5078.45,0.040513619780540466,0.01900228459851469
5085.33,0.036482375115156174,0.018723445457599443
5092.22,0.03397831693291664,0.01988557549371912
5099.12,0.03426431864500046,0.02017436466121546
5106.03,0.03820675611495972,0.020057589698457157
5112.95,0.045768458396196365,0.020869194065855346
5119.87,0.05587078630924225,0.01988129029697353
5126.81,0.06682439893484116,0.019432921228711778
5133.75,0.07693935930728912,0.0193898776546338
5140.71,0.08532162755727768,0.019386912104033416
5147.67,0.09207861870527267,0.019234532465403652
5154.65,0.09823095798492432,0.019797930166182056
5161.63,0.10503949224948883,0.020320380010570054
5168.62,0.11341363191604614,0.022211842583464363
5175.62,0.12346462905406952,0.02190313966193736
5182.64,0.13452717661857605,0.02160655791309994
5189.66,0.1454252451658249,0.022747888258423547
5196.69,0.15499277412891388,0.019785019198828184
5203.73,0.16230103373527527,0.019599708445352713
5210.78,0.16672445833683014,0.019522850292999175
5217.84,0.1678445041179657,0.019806818906617334
5224.91,0.1653939187526703,0.018555462739053362
5231.98,0.15938621759414673,0.018591763057261075
5239.07,0.15035393834114075,0.02003479278233357
5246.17,0.1396048367023468,0.019113563758350143
5253.28,0.1291370987892151,0.019383842978282616
5260.39,0.12119557708501816,0.019030054730193046
5267.52,0.11750031262636185,0.019016831117988017
5274.66,0.11867983639240265,0.01921300816300806
5281.8,0.12398289889097214,0.018474519391280697
5288.96,0.13169364631175995,0.01752637471983799
5296.12,0.13990575075149536,0.01781788495342379
5303.3,0.14742082357406616,0.017850966942662368
5310.48,0.15405072271823883,0.018202766200098783
5317.67,0.16037562489509583,0.018328987194594096
5324.88,0.16683855652809143,0.022347238821587942
5332.09,0.1727997064590454,0.022453106175400472
5339.32,0.17621582746505737,0.022980690491782193
5346.55,0.17410026490688324,0.022720513813551772
5353.79,0.16387952864170074,0.022540266136752345
5361.05,0.1448279321193695,0.02339210376890093
5368.31,0.11907320469617844,0.023378851003799928
5375.58,0.09120501577854156,0.021735139588181795
5382.86,0.0668635368347168,0.021905248407236597
5390.16,0.05057995021343231,0.021887757526831923
5397.46,0.04404536634683609,0.021809461989492032
5404.77,0.04524810239672661,0.021793440057652554
5412.09,0.04942025616765022,0.021532253815650104
5419.42,0.05098801106214523,0.021983527298168378
5426.77,0.04583442956209183,0.022089067089983587
5434.12,0.03286758437752724,0.021832362354829632
5441.48,0.014190600253641605,0.021286365779111166
5448.85,-0.006101295351982117,0.021979300342145663
5456.23,-0.023861566558480263,0.02185007180871653
5463.62,-0.036649495363235474,0.017450478979459914
5471.03,-0.044538918882608414,0.017210907392777672
5478.44,-0.0496530719101429,0.017892704222306047
5485.86,-0.05494743585586548,0.01789846458736058
5493.29,-0.06269710510969162,0.01790028998056475
5500.73,-0.0736263245344162,0.016754044062581824
5508.18,-0.08693841844797134,0.017162570271676017
5515.65,-0.10113421082496643,0.01719599513795868
5523.12,-0.11497869342565536,0.017109868181185338
5530.6,-0.12830717861652374,0.017102211413698064
5538.09,-0.14193765819072723,0.017196545183043067
5545.6,-0.15704764425754547,0.017581676976074507
5553.11,-0.1741829216480255,0.017714470397022536
5560.63,-0.1927037537097931,0.018906912006681525
5568.17,-0.2106562852859497,0.018968503307508693
5575.71,-0.22521653771400452,0.019434874145115442
5583.26,-0.23369856178760529,0.019218991709559322
5590.83,-0.23424407839775085,0.01794008457636116
5598.4,-0.2262500673532486,0.01797609277666766
5605.98,-0.210368812084198,0.017912888994528496
5613.58,-0.1880827248096466,0.018508985783549557
5621.18,-0.1613837033510208,0.017668684465897387
5628.8,-0.13223884999752045,0.023275314970677394
5636.42,-0.10265538096427917,0.024037467616557083
5644.06,-0.07430534809827805,0.024067052023992792
5651.71,-0.048689913004636765,0.022829300169729932
5659.36,-0.02686239778995514,0.02343870102446656
5667.03,-0.00920550525188446,0.023480518141050698
5674.71,0.0044104233384132385,0.023469221186506805
5682.39,0.01459842175245285,0.02347079857232487
5690.09,0.02219737134873867,0.0234467805899198
5697.8,0.02790358103811741,0.02338148138430543
5705.52,0.03221135213971138,0.02313410489273645
5713.25,0.0354854054749012,0.02282627851679606
5720.99,0.03818739578127861,0.02287471624671558
5728.74,0.04105805233120918,0.022367419092029266
5736.5,0.045084089040756226,0.022565950413099185
5744.27,0.051206253468990326,0.022633738824350734
5752.05,0.05989744886755943,0.022042332755163194
5759.84,0.0708494707942009,0.021867975970006042
5767.65,0.08299114555120468,0.019835240372958585
5775.46,0.09478574246168137,0.013269484368095427
5783.29,0.10488702356815338,0.012254949374347731
5791.12,0.11247424781322479,0.013287304291210777
5798.97,0.11746030300855637,0.012795031402724803
5806.82,0.12010962516069412,0.01253902895180739
5814.69,0.12060973793268204,0.012888018903958392
5822.57,0.11867424845695496,0.014221590729517421
5830.45,0.1136268749833107,0.014948269502845103
5838.35,0.10487222671508789,0.014954314670445472
5846.26,0.0925990641117096,0.015008754669059328
5854.18,0.0782032459974289,0.015443808086549932
5862.11,0.06413846462965012,0.015418967523105955
5870.05,0.053132571280002594,0.015634452589655734
5878.01,0.04708503559231758,0.015592139803240706
5885.97,0.04623899981379509,0.015306588549675036
5893.94,0.048956722021102905,0.015276290618947226
5901.93,0.05246424674987793,0.016150448757176885
5909.92,0.05404869467020035,0.01726594000908105
5917.93,0.05225559324026108,0.01737245969956356
5925.95,0.0473804697394371,0.018381997471705443
5933.97,0.041093431413173676,0.018054954869578664
5942.01,0.03531515225768089,0.01756294762746496
5950.06,0.03109930083155632,0.02155969990776706
5958.12,0.028013242408633232,0.02261944106373299
5966.2,0.024455459788441658,0.02249295763441861
5974.28,0.01870950683951378,0.02148037211757539
5982.37,0.010079747997224331,0.022075107354248762
5990.48,-0.0005321868229657412,0.022137018253995545
5998.59,-0.010963835753500462,0.021984669104569223
6006.72,-0.019058849662542343,0.02166620200995361
6014.85,-0.02390924282371998,0.02257796380760659
6023.0,-0.026652583852410316,0.022296248696157428
6031.16,-0.030034702271223068,0.02279611517321433
6039.33,-0.03710367530584335,0.022784858911733857
6047.52,-0.04958866164088249,0.02293787811703683
6055.71,-0.06681690365076065,0.02255015753610083
6063.91,-0.08595207333564758,0.021001531115790024
6072.13,-0.1033019945025444,0.021436309206330266
6080.35,-0.11604169011116028,0.020566385209867113
6088.59,-0.12368053197860718,0.02057998897694737
6096.84,-0.12802475690841675,0.020688580078868785
6105.1,-0.13204888999462128,0.017361537498476763
6113.37,-0.1379949003458023,0.01651830353750042
6121.65,-0.14585794508457184,0.016532737764037936
6129.94,-0.1531057357788086,0.016456618462683394
6138.25,-0.1558525115251541,0.014758308093770618
6146.56,-0.15088336169719696,0.014615784972954168
6154.89,-0.137530118227005,0.014116022516704815
6163.23,-0.11830798536539078,0.014134429204772274
6171.58,-0.09796267002820969,0.012677836241111608
6179.94,-0.08135976642370224,0.013034667076353786
6188.31,-0.07130587846040726,0.010885700282815502
6196.69,-0.06742110103368759,0.011177611336886691
6205.09,-0.0666288286447525,0.011873054167847702
6213.5,-0.06496996432542801,0.01403737751792823
6221.91,-0.05974120646715164,0.014108230769040397
6230.34,-0.050807323306798935,0.015668268110972296
6238.78,-0.040424589067697525,0.01578626221944767
6247.23,-0.03168022632598877,0.015985693580683826
6255.7,-0.02650323510169983,0.015736424310068917
6264.17,-0.024438591673970222,0.01670179841391789
6272.66,-0.02282411977648735,0.01628587033431881
6281.16,-0.018448876217007637,0.01678890372484087
6289.67,-0.009646568447351456,0.01716277299837787
6298.19,0.002331368625164032,0.016998543930620325
6306.72,0.01356458105146885,0.018617663211482893
6315.26,0.019324833527207375,0.02128254957306533
6323.82,0.01663183607161045,0.021460185826787045
6332.38,0.006154356058686972,0.02185290646112069
6340.96,-0.007637122180312872,0.02120994322496216
6349.55,-0.01822499744594097,0.021959550263356116
6358.15,-0.019997218623757362,0.022268228446962763
6366.77,-0.01084983255714178,0.022672828135327838
6375.39,0.006808984559029341,0.022887633260947827
6384.03,0.027304386720061302,0.02281070220456253
6392.68,0.04439721256494522,0.024795301265196946
6401.34,0.05434490740299225,0.024840786483184444
6410.01,0.05760899558663368,0.028985874311143
6418.7,0.05844811722636223,0.02898381788754514
6427.39,0.06262262165546417,0.027951795844800564
6436.1,0.07440207153558731,0.028102885499173023
6444.82,0.09432560205459595,0.028063934423598832
6453.55,0.1188439130783081,0.027862622098923002
6462.29,0.1419343501329422,0.02868724212245649
6471.04,0.15782082080841064,0.028539636959668137
6479.81,0.16343750059604645,0.027048157193910263
6488.59,0.15943321585655212,0.027149307760653756
6497.38,0.14950856566429138,0.02688571531123054
6506.18,0.1383959949016571,0.02729480196266449
6515.0,0.12971121072769165,0.027387871255955085
6523.82,0.12477610260248184,0.026884623495199367
6532.66,0.1227111965417862,0.02599450694610762
6541.51,0.12173942476511002,0.0249874576967368
6550.37,0.12061743438243866,0.02495890651047412
6559.25,0.11944633722305298,0.021606059342216506
6568.13,0.11939974874258041,0.02192897063991231
6577.03,0.1216147243976593,0.017395088260894004
6585.94,0.12601283192634583,0.017735541045394283
6594.86,0.13080112636089325,0.018762252723250595
6603.8,0.13302840292453766,0.019702727203034415
6612.74,0.12989573180675507,0.021157149932973063
6621.7,0.12014639377593994,0.021278385214059378
6630.67,0.1047089695930481,0.02207430554988714
6639.65,0.08625838905572891,0.021399469572649533
6648.65,0.06788898259401321,0.021751171354861515
6657.66,0.05172637850046158,0.021119070510755112
6666.68,0.03803116828203201,0.021145285769507194
6675.71,0.025437623262405396,0.021171745846496608
6684.75,0.012064644135534763,0.02237461932982836
6693.81,-0.0031467529479414225,0.027095230149152466
6702.88,-0.019549254328012466,0.028044180582393618
6711.96,-0.03496440127491951,0.028188336620296284
6721.05,-0.04669332876801491,0.028398024817133865
6730.15,-0.05285661295056343,0.02855932084325505
6739.27,-0.05332106351852417,0.02829726927588091
6748.4,-0.04972066357731819,0.028279820552971915
6757.54,-0.044636692851781845,0.02811437560889626
6766.7,-0.04033157229423523,0.027445575269738853
6775.86,-0.037794098258018494,0.026511143736385454
6785.04,-0.03648480027914047,0.025610295193622824
6794.24,-0.03494659438729286,0.025833597419558364
6803.44,-0.03179553896188736,0.023074471224465397
6812.66,-0.026554809883236885,0.023451158625626373
6821.89,-0.01991092972457409,0.02312453367105757
6831.13,-0.013280193321406841,0.02301509690122433
6840.38,-0.00803704559803009,0.023485283968626525
6849.65,-0.0048796203918755054,0.022735277054563352
6858.93,-0.0037114976439625025,0.021825302332302475
6868.22,-0.004004925023764372,0.014600985736801405
6877.52,-0.005398522596806288,0.013650009127784916
6886.84,-0.008060099557042122,0.01352392307840136
6896.17,-0.012535246089100838,0.012816101285364133
6905.51,-0.019162701442837715,0.01249312208052587
6914.87,-0.027432622388005257,0.01165818524095788
