wvl,flux,err
4001.77,0.32341012358665466,0.07858989074622597
4007.19,0.44877198338508606,0.07083254988909847
4012.62,0.540930986404419,0.10929460668441508
4018.06,0.595501720905304,0.12120767842675648
4023.5,0.6208476424217224,0.1323509189413066
4028.95,0.6274667382240295,0.12014638333012526
4034.41,0.6182855367660522,0.13106696906359724
4039.88,0.5871042013168335,0.12375409858893713
4045.35,0.5259300470352173,0.1315426113464928
4050.83,0.4347478151321411,0.12480006832229909
4056.32,0.3269331753253937,0.12427209251142299
4061.81,0.22488804161548615,0.1253203054606134
4067.32,0.1476168930530548,0.12495904152831422
4072.83,0.10059677064418793,0.1253774123505881
4078.34,0.0720534697175026,0.11414393847065574
4083.87,0.04129258170723915,0.10817233646429314
4089.4,-0.007204951718449593,0.10861520161472003
4094.94,-0.07355539500713348,0.09991110611955543
4100.49,-0.14175711572170258,0.09440365186158221
4106.04,-0.18977287411689758,0.09430858798268793
4111.61,-0.2037656307220459,0.09388599689560939
4117.18,-0.1863839477300644,0.08158879108060894
4122.75,-0.1551857739686966,0.08595345401182454
4128.34,-0.13155214488506317,0.08648744539071201
4133.93,-0.1290370374917984,0.08496324717405516
4139.53,-0.14756673574447632,0.08051214434591022
4145.14,-0.17754848301410675,0.06384730982447807
4150.75,-0.20919005572795868,0.06987167810692613
4156.38,-0.2401866316795349,0.07007317106508572
4162.01,-0.27523574233055115,0.07170207029297625
4167.65,-0.3192390501499176,0.06937962657578035
4173.29,-0.3687548041343689,0.06852179375488325
4178.95,-0.4102415144443512,0.0635769827766156
4184.61,-0.42613571882247925,0.06457529421345382
4190.28,-0.4068756401538849,0.06545841830798517
4195.95,-0.358972430229187,0.06585999117697121
4201.64,-0.3032931089401245,0.0692063286598325
4207.33,-0.26430514454841614,0.06946942299116599
4213.03,-0.2551858723163605,0.07400278075113254
4218.74,-0.2702168822288513,0.07447888084411973
4224.45,-0.28850099444389343,0.07155325612910635
4230.18,-0.28769251704216003,0.06141331763197443
4235.91,-0.25850698351860046,0.061301922293478806
4241.64,-0.21116067469120026,0.06207377911302381
4247.39,-0.1687922179698944,0.061257408721127886
4253.15,-0.15341180562973022,0.060305402706967604
4258.91,-0.17203713953495026,0.05406325762734699
4264.68,-0.21282823383808136,0.05363040679513524
4270.45,-0.25292789936065674,0.05226757945647678
4276.24,-0.27272504568099976,0.05114480227910567
4282.03,-0.26642900705337524,0.0535042249861014
4287.83,-0.2438376545906067,0.05353991974729976
4293.64,-0.22179244458675385,0.05399872277845906
4299.46,-0.2125861793756485,0.060438862495310386
4305.28,-0.21685802936553955,0.060263980091494064
4311.12,-0.22531384229660034,0.05613444061259889
4316.96,-0.22710460424423218,0.05664517486292535
4322.8,-0.21835169196128845,0.0504302879046268
4328.66,-0.20448175072669983,0.05004739265568775
4334.52,-0.19536180794239044,0.050884734933526514
4340.4,-0.19699257612228394,0.05038465710451735
4346.28,-0.20647616684436798,0.05033308811923203
4352.16,-0.21380256116390228,0.05553873798230633
4358.06,-0.20951604843139648,0.05604548733664269
4363.96,-0.1923254281282425,0.05412920374226116
4369.88,-0.17131219804286957,0.054550339186462384
4375.8,-0.1610264778137207,0.05460504433700591
4381.72,-0.1723533719778061,0.053030189853819035
4387.66,-0.20599782466888428,0.05392220980745275
4393.6,-0.25234782695770264,0.05102439719343365
4399.56,-0.2981254458427429,0.050781080424798654
4405.52,-0.33412861824035645,0.05147986547954881
4411.48,-0.3601300120353699,0.04354172512117836
4417.46,-0.38269490003585815,0.043767825118141424
4423.45,-0.4084891676902771,0.04349161479277728
4429.44,-0.4385266602039337,0.041864052138312305
4435.44,-0.4671795964241028,0.04408649146968046
4441.45,-0.48633697628974915,0.044477747961435304
4447.46,-0.4915302097797394,0.04401413449262068
4453.49,-0.48518380522727966,0.04380915534057491
4459.52,-0.47437581419944763,0.044104880902504556
4465.56,-0.46509480476379395,0.03510758728211004
4471.61,-0.45728716254234314,0.033456065835215834
4477.67,-0.44460222125053406,0.03357927054375175
4483.74,-0.41913747787475586,0.03539607131736948
4489.81,-0.37775927782058716,0.035592945653346975
4495.89,-0.3249351680278778,0.03537576219552434
4501.98,-0.270128071308136,0.032092731269157584
4508.08,-0.22126160562038422,0.03244945770283487
4514.19,-0.17918141186237335,0.031536432945673896
4520.31,-0.1373741775751114,0.030223662646860043
4526.43,-0.08752240240573883,0.030624795328078516
4532.56,-0.026657089591026306,0.027924189997998897
4538.7,0.03902542218565941,0.02762875094183877
4544.85,0.09743667393922806,0.03050376522666198
4551.01,0.13892021775245667,0.02993432077879612
4557.17,0.16397269070148468,0.029416476042749714
4563.35,0.1848248541355133,0.026694690438058572
4569.53,0.21844075620174408,0.02574263833220287
4575.72,0.2760070860385895,0.025757717069354365
4581.92,0.35494276881217957,0.02790525177662394
4588.13,0.43952396512031555,0.02798159143506882
4594.34,0.5099105834960938,0.02687102719613472
4600.57,0.5547041296958923,0.026566869616684235
4606.8,0.5772698521614075,0.028715387835996038
4613.04,0.5938645601272583,0.029724141100544093
4619.29,0.6224151253700256,0.032426725545034306
4625.55,0.6704765558242798,0.031586442008991064
4631.81,0.7294571995735168,0.03168744461645609
4638.09,0.7795351147651672,0.030843598662677857
4644.37,0.8009733557701111,0.030792624015835896
4650.66,0.7865001559257507,0.03154629166830508
4656.96,0.7452418804168701,0.03030721305998629
4663.27,0.6972566843032837,0.02923640669931297
4669.59,0.6618085503578186,0.028546404582711103
4675.92,0.6468279361724854,0.02851307798070039
4682.25,0.6457672715187073,0.02665198547605521
4688.59,0.6431099772453308,0.025005039332810147
4694.94,0.6244697570800781,0.02393373500563513
4701.3,0.584533154964447,0.024260881221902234
4707.67,0.5285539031028748,0.021553463257573086
4714.05,0.4673803150653839,0.01975742185198098
4720.44,0.410096138715744,0.019668182700726747
4726.83,0.35938194394111633,0.019478540432866235
4733.24,0.31168729066848755,0.021786718441699673
4739.65,0.2622155249118805,0.021207540082420446
4746.07,0.20886202156543732,0.018322606747219992
4752.5,0.15374304354190826,0.014102382741627624
4758.94,0.10053695738315582,0.014293868556244817
4765.38,0.05058321729302406,0.019381079206429747
4771.84,0.0005722524947486818,0.018784550004513765
4778.3,-0.05513668432831764,0.01885643152055737
4784.78,-0.12077928334474564,0.020303190428732812
4791.26,-0.19462910294532776,0.020899649644222307
4797.75,-0.26911842823028564,0.02125670284912403
4804.25,-0.3338252007961273,0.026391157730796037
4810.76,-0.38059601187705994,0.026816382587081036
4817.28,-0.407026082277298,0.026596729896670255
4823.8,-0.4163033664226532,0.026001485774069067
4830.34,-0.4140186011791229,0.025845186247491398
4836.88,-0.4042365252971649,0.025423738151633454
4843.43,-0.38800740242004395,0.02531340488501027
4849.99,-0.3648807108402252,0.02547867498151963
4856.56,-0.33609503507614136,0.021751655959323317
4863.14,-0.30664563179016113,0.021802731939593315
4869.73,-0.2842787206172943,0.022045542099644638
4876.33,-0.2756820619106293,0.019532428791378557
4882.94,-0.28224560618400574,0.020036091702390485
4889.55,-0.2982252836227417,0.021782487912911024
4896.17,-0.31281283497810364,0.021802569056026934
4902.81,-0.3148490786552429,0.025754560571676997
4909.45,-0.2974312901496887,0.026793923562376285
4916.1,-0.2599653899669647,0.02662304903340407
4922.76,-0.2064550369977951,0.026053256954599282
4929.43,-0.1417461335659027,0.02561375385853813
4936.11,-0.06824564188718796,0.025681510364426344
4942.79,0.014629475772380829,0.025006494115473402
4949.49,0.10874466598033905,0.03350484797564725
4956.2,0.21312882006168365,0.03546110958875026
4962.91,0.3219320774078369,0.03963212311671605
4969.63,0.4250815808773041,0.041530746211886696
4976.37,0.510613739490509,0.0442950096353477
4983.11,0.5677462816238403,0.04672697381291661
4989.86,0.5902460217475891,0.04759869183691683
4996.62,0.5764073729515076,0.04642852232996409
5003.39,0.5282741785049438,0.04581420855467018
5010.17,0.4503658413887024,0.045000877245815134
5016.95,0.34920257329940796,0.042855409720899205
5023.75,0.23285910487174988,0.04220183344496117
5030.55,0.11208757013082504,0.03681616572257535
5037.37,-0.0017005254048854113,0.034159070831930836
5044.19,-0.09711536765098572,0.03291423064073752
5051.03,-0.16667842864990234,0.033193135541774194
5057.87,-0.20754101872444153,0.03455539291959612
5064.72,-0.22255165874958038,0.03414500556235225
5071.58,-0.21797600388526917,0.03459757808266094
5078.45,-0.20084990561008453,0.0308705528823592
5085.33,-0.17654049396514893,0.03028197152156702
5092.22,-0.14777804911136627,0.02715653193655844
5099.12,-0.11540688574314117,0.025709209157713922
5106.03,-0.08014678210020065,0.022740419364539993
5112.95,-0.04415825009346008,0.017960218338607475
5119.87,-0.011459516361355782,0.013770272121514018
5126.81,0.013346870429813862,0.013987148885993174
5133.75,0.026650793850421906,0.014259585030321454
5140.71,0.027788911014795303,0.014454662795769572
5147.67,0.019262325018644333,0.013940359870754941
5154.65,0.005722506437450647,0.013865331817700327
5161.63,-0.008115769363939762,0.012905244729357872
5168.62,-0.019598597660660744,0.012233041341655903
5175.62,-0.028958482667803764,0.012851083374103432
5182.64,-0.03860275074839592,0.012092641798527834
5189.66,-0.05108284205198288,0.011548040350043143
5196.69,-0.06701763719320297,0.014527565289263251
5203.73,-0.08392608165740967,0.014553934479077787
5210.78,-0.09681186079978943,0.015122382970024002
5217.84,-0.10015488415956497,0.0157705678098465
5224.91,-0.09026144444942474,0.01561266049456566
5231.98,-0.06674977391958237,0.01561183816734517
5239.07,-0.03226183354854584,0.01407243908563523
5246.17,0.008957804180681705,0.013973988596330502
5253.28,0.05309296026825905,0.013995560122540184
5260.39,0.09787223488092422,0.014041595482492862
5267.52,0.14268480241298676,0.013460151500394887
5274.66,0.18708349764347076,0.01221188269623026
5281.8,0.22985200583934784,0.011711973818545733
5288.96,0.26895377039909363,0.012396195033481447
5296.12,0.30195391178131104,0.013353181335778187
5303.3,0.3277183473110199,0.013804715799378446
5310.48,0.34668877720832825,0.01420229016862829
5317.67,0.3606823682785034,0.01473068737291449
5324.88,0.37134474515914917,0.014753703191066442
5332.09,0.3788633942604065,0.01241419583703152
5339.32,0.3818991184234619,0.014451260919672861
5346.55,0.3786274194717407,0.014483604355323875
5353.79,0.3684718906879425,0.013102357267488545
5361.05,0.3529718518257141,0.012281715087009192
5368.31,0.33523619174957275,0.012258617029424155
5375.58,0.31790122389793396,0.011930442998897867
5382.86,0.30126866698265076,0.01060500994717123
5390.16,0.28278225660324097,0.008731683582460813
5397.46,0.2586427628993988,0.008939920018466947
5404.77,0.226393923163414,0.010014717053042046
5412.09,0.18720215559005737,0.009896043210707752
5419.42,0.14598986506462097,0.010882257908604795
5426.77,0.10927676409482956,0.0116245194730572
5434.12,0.08227916061878204,0.011947463234389425
5441.48,0.06640343368053436,0.012003080619194537
5448.85,0.05958611145615578,0.011982859917349266
5456.23,0.058433350175619125,0.012265362250319186
5463.62,0.06089695170521736,0.012099670966723092
5471.03,0.06753095984458923,0.01210849880501097
5478.44,0.08039609342813492,0.011741453748731827
5485.86,0.10047424584627151,0.012374204232927068
5493.29,0.1253974288702011,0.012452545599348358
5500.73,0.1492955982685089,0.012383375810676885
5508.18,0.1650770604610443,0.012178886499139277
5515.65,0.16782701015472412,0.011257229444490592
5523.12,0.15717709064483643,0.011764976214594316
5530.6,0.1373099386692047,0.011897098693520788
5538.09,0.11444365978240967,0.011989048687779528
5545.6,0.09361942857503891,0.01142756098419296
5553.11,0.07681549340486526,0.011228512641139408
5560.63,0.06298738718032837,0.010766647093139419
5568.17,0.050098881125450134,0.010269788378418198
5575.71,0.037179186940193176,0.010498659082952198
5583.26,0.02486930601298809,0.01093993129446319
5590.83,0.014435071498155594,0.01182304057915731
5598.4,0.006052710581570864,0.011231644111964052
5605.98,-0.0022832409013062716,0.011334384705056483
5613.58,-0.014114459976553917,0.011279166960404168
5621.18,-0.03268212452530861,0.010653774167259248
5628.8,-0.05930795893073082,0.009781347251280381
5636.42,-0.09275079518556595,0.009057090161497392
5644.06,-0.13042598962783813,0.009060945084409817
5651.71,-0.1696965992450714,0.00872363740020752
5659.36,-0.20885568857192993,0.009965734553389331
5667.03,-0.24692656099796295,0.010368175155238758
5674.71,-0.2822572588920593,0.010651064412266438
5682.39,-0.31207215785980225,0.010919636985663866
5690.09,-0.3333077132701874,0.011125974014431422
5697.8,-0.34413331747055054,0.012024258748347177
5705.52,-0.3456684947013855,0.012479212282474028
5713.25,-0.3418441414833069,0.01307537613289586
5720.99,-0.33736467361450195,0.012783247164702544
5728.74,-0.33488911390304565,0.012169871596267845
5736.5,-0.33336785435676575,0.010551949720385466
5744.27,-0.3288532495498657,0.009321242683281047
5752.05,-0.3174160420894623,0.01220950771247481
5759.84,-0.2982051372528076,0.013445340817928333
5767.65,-0.27435940504074097,0.013372119544484936
5775.46,-0.251032292842865,0.012276475639906083
5783.29,-0.23126491904258728,0.011953706578998094
5791.12,-0.21313868463039398,0.011576776573549557
5798.97,-0.1897134780883789,0.011979495210833956
5806.82,-0.15296252071857452,0.0131965031920402
5814.69,-0.0987132266163826,0.013010939453575909
5822.57,-0.030284704640507698,0.015055400581169155
5830.45,0.04226267710328102,0.016038247150011627
5838.35,0.10709314048290253,0.017029106732899105
5846.26,0.15584412217140198,0.017956037260244494
5854.18,0.18755219876766205,0.018581590042629697
5862.11,0.20785027742385864,0.019261673817889367
5870.05,0.22466744482517242,0.01957327702355875
5878.01,0.2432316094636917,0.019946435116178694
5885.97,0.2633388936519623,0.020099707308569532
5893.94,0.2805594503879547,0.02140897745121191
5901.93,0.289802223443985,0.020912356794626573
5909.92,0.28877079486846924,0.019390155055551462
5917.93,0.27912792563438416,0.01799916910707167
5925.95,0.26470425724983215,0.016910505347179236
5933.97,0.2486293911933899,0.016223406721125565
5942.01,0.2314196676015854,0.016003409727028902
5950.06,0.21161571145057678,0.016202235005978963
5958.12,0.18789894878864288,0.01628214372961948
5966.2,0.1610008031129837,0.015562204633360577
5974.28,0.1338212937116623,0.007360068647657868
5982.37,0.10920874774456024,0.007383127197335603
5990.48,0.087622731924057,0.007856070653239526
5998.59,0.06642502546310425,0.008092359421737996
6006.72,0.041438519954681396,0.009572150309740256
6014.85,0.010444669984281063,0.00994526486312322
6023.0,-0.02458578534424305,0.010185755782829566
6031.16,-0.05751219391822815,0.010230823898249823
6039.33,-0.08123736828565598,0.010250412775595862
6047.52,-0.09171102941036224,0.00951419510907258
6055.71,-0.09019169956445694,0.008871279125114215
6063.91,-0.08247245103120804,0.009580865605321134
6072.13,-0.07527702301740646,0.009608577478658412
6080.35,-0.07262095808982849,0.009862045930682762
6088.59,-0.07424671947956085,0.008995428578619175
6096.84,-0.07718008011579514,0.008573650649467789
6105.1,-0.0788811594247818,0.010001860215515471
6113.37,-0.07961659133434296,0.012161318766425046
6121.65,-0.0821947231888771,0.012242207009078953
6129.94,-0.08926963806152344,0.0124099873188227
6138.25,-0.10028325021266937,0.012994748072795163
6146.56,-0.11038672924041748,0.013294382845383583
6154.89,-0.11256559193134308,0.013655102099537486
6163.23,-0.10154179483652115,0.01361795875019043
6171.58,-0.07722512632608414,0.013703221183545522
6179.94,-0.04528392106294632,0.013782368367120696
6188.31,-0.014564886689186096,0.014092942896310025
6196.69,0.0069687943905591965,0.016014540507999473
6205.09,0.015289636328816414,0.016014561693770805
6213.5,0.010667886584997177,0.01593878209230001
6221.91,-0.004117454867810011,0.015815400329604972
6230.34,-0.02634458988904953,0.015921512986722706
6238.78,-0.054423924535512924,0.015783512505971188
6247.23,-0.08720911294221878,0.015791408042330358
6255.7,-0.12246265262365341,0.01599943219997039
6264.17,-0.1559806764125824,0.014754422117853265
6272.66,-0.18298684060573578,0.012803269180703269
6281.16,-0.20018552243709564,0.012507720585411703
6289.67,-0.2077752947807312,0.013214063574454656
6298.19,-0.20923659205436707,0.013059218038559786
6306.72,-0.20905494689941406,0.013551352262608448
6315.26,-0.20981894433498383,0.014162237530579868
6323.82,-0.21068774163722992,0.014237932222012015
6332.38,-0.20825287699699402,0.014076619754963224
6340.96,-0.1991153061389923,0.013843421053742158
6349.55,-0.18226103484630585,0.012948705775832296
6358.15,-0.15954004228115082,0.008476861677622889
6366.77,-0.1340007483959198,0.008561179313712072
6375.39,-0.10769706219434738,0.009065256178353773
6384.03,-0.08043670654296875,0.00988241018221188
6392.68,-0.0511174239218235,0.011598614199776439
6401.34,-0.02003343403339386,0.012127016502493244
6410.01,0.009439891204237938,0.012157876263379878
6418.7,0.03162567690014839,0.01155775292763097
6427.39,0.041427332907915115,0.01217797014433529
6436.1,0.03775396943092346,0.012177570574006164
6444.82,0.024406930431723595,0.012122327205007551
6453.55,0.00797480158507824,0.011724994191931428
6462.29,-0.0063095358200371265,0.012068847363297329
6471.04,-0.01773189753293991,0.013181461935441202
6479.81,-0.029933635145425797,0.012681706930273635
6488.59,-0.04729297384619713,0.012260784475969273
6497.38,-0.07041744887828827,0.01227345221388683
6506.18,-0.09402235597372055,0.01302053633369272
6515.0,-0.10916628688573837,0.012773600494727344
6523.82,-0.10857225209474564,0.014020404603197575
6532.66,-0.09181652218103409,0.015659692572328757
6541.51,-0.0663718432188034,0.01623691921651832
6550.37,-0.04374435171484947,0.016222685015867946
6559.25,-0.03277222439646721,0.015428935615072593
6568.13,-0.0345294326543808,0.01514556739390761
6577.03,-0.041928380727767944,0.01492220846393569
6585.94,-0.04455241188406944,0.015133360020612831
6594.86,-0.035302434116601944,0.015469574588643687
6603.8,-0.014591234736144543,0.015113594904607166
6612.74,0.010449073277413845,0.014760368868302415
6621.7,0.031195709481835365,0.014814678140236777
6630.67,0.043037451803684235,0.014792318378475621
6639.65,0.04788108170032501,0.013819939845699626
6648.65,0.05189052224159241,0.013696555872472649
6657.66,0.060544077306985855,0.013624104915029026
6666.68,0.0747022032737732,0.013390530376526575
6675.71,0.09040629118680954,0.012584537983690185
6684.75,0.10228005796670914,0.013741581901347727
6693.81,0.10768405348062515,0.013361997770753302
6702.88,0.10830868035554886,0.012115241656876465
6711.96,0.10812583565711975,0.010777524418100733
6721.05,0.10931485146284103,0.01061201665006844
6730.15,0.10964734852313995,0.01079499366582241
6739.27,0.10364387184381485,0.010873146954607555
6748.4,0.0868866816163063,0.012744382102585525
6757.54,0.06027251109480858,0.013129831118515699
6766.7,0.0306458231061697,0.010871628257950952
6775.86,0.007024497725069523,0.010855544010529001
6785.04,-0.005645291414111853,0.011768869069253337
6794.24,-0.010132812894880772,0.012951776178089881
6803.44,-0.01563984900712967,0.01335661632683964
6812.66,-0.03176811710000038,0.013355835878333595
6821.89,-0.061779044568538666,0.013584877359409157
6831.13,-0.09998991340398788,0.013495107464022622
6840.38,-0.1352328509092331,0.014630800606132493
6849.65,-0.1580868810415268,0.017776595569527633
6858.93,-0.166615828871727,0.019958453369287456
6868.22,-0.16676680743694305,0.020023170717624057
6877.52,-0.16674725711345673,0.02086509000438929
6886.84,-0.16977174580097198,0.02399698858142623
6896.17,-0.17074286937713623,0.02427533085575983
6905.51,-0.15981148183345795,0.027722004664481645
6914.87,-0.130661740899086,0.047097411063297547
6924.24,-0.08755738288164139,0.047636401865024394
6933.62,-0.0452510304749012,0.0495740319537097
6943.01,-0.020638715475797653,0.05323540473924758
6952.42,-0.02096872590482235,0.05738914037722427
