wvl,flux,err
4001.77,0.04117077216506004,0.00017077104612374383
4007.19,0.040663767606019974,0.0036908298585667573
4012.62,0.039298053830862045,0.0028790617334665644
4018.06,0.03708398714661598,0.0027887719149220333
4023.5,0.03405911847949028,0.003253753493045806
4028.95,0.030268283560872078,0.005888251411678432
4034.41,0.025778207927942276,0.006686335690180767
4039.88,0.020670825615525246,0.006499111420668058
4045.35,0.015053055249154568,0.006313729455430631
4050.83,0.009021817706525326,0.005981796633315683
4056.32,0.002691560657694936,0.006024137881853857
4061.81,-0.0038062017410993576,0.005976015151348027
4067.32,-0.010373779572546482,0.005550523331598906
4072.83,-0.016867438331246376,0.0052853295208501565
4078.34,-0.02317241206765175,0.005260601146354693
4083.87,-0.029203008860349655,0.005485184179290672
4089.4,-0.034839313477277756,0.005447535595864198
4094.94,-0.04000605642795563,0.0054075224603974195
4100.49,-0.04463096708059311,0.005427083459138545
4106.04,-0.0486508272588253,0.005430450046999693
4111.61,-0.05203985795378685,0.004894738963539857
4117.18,-0.05476311594247818,0.004837862822157346
4122.75,-0.056818343698978424,0.004614391510982805
4128.34,-0.05822410434484482,0.004810962630982106
4133.93,-0.05900196731090546,0.0046880094462149685
4139.53,-0.05919688194990158,0.004713907871564707
4145.14,-0.058863624930381775,0.004790665006310905
4150.75,-0.05806948244571686,0.004812163403907564
4156.38,-0.056887187063694,0.00530419806361412
4162.01,-0.05540168285369873,0.0053858744729728516
4167.65,-0.05369684472680092,0.0051047723711847
4173.29,-0.05186320096254349,0.005865133909531631
4178.95,-0.04998066648840904,0.006138701398597496
4184.61,-0.0481388084590435,0.006248228234763544
4190.28,-0.046411920338869095,0.006170992697767411
4195.95,-0.044872742146253586,0.006175149427203543
4201.64,-0.04357638210058212,0.0061521100165097455
4207.33,-0.042577825486660004,0.00636537900211462
4213.03,-0.04191243276000023,0.006721767485901757
4218.74,-0.04160555452108383,0.006880557626794384
4224.45,-0.041669223457574844,0.0067788091348208
4230.18,-0.04210181161761284,0.007023811053084135
4235.91,-0.04288787022233009,0.006916878018547024
4241.64,-0.043998751789331436,0.006931938470068385
4247.39,-0.04539906606078148,0.0069470872017491385
4253.14,-0.04703529551625252,0.006714944344825616
4258.91,-0.04885433614253998,0.006702703075094382
4264.68,-0.0507843904197216,0.006387232291992711
4270.45,-0.0527535080909729,0.006276364414375027
4276.24,-0.054693449288606644,0.006358356617951379
4282.03,-0.05652087926864624,0.005711550760827531
4287.83,-0.0581631176173687,0.004905418315557246
4293.64,-0.059546466916799545,0.004389593559505815
4299.46,-0.06060156971216202,0.005013696385658652
4305.28,-0.06126412749290466,0.005556261537523842
4311.12,-0.06148187443614006,0.006907306796575826
4316.96,-0.06120746582746506,0.007666549217920051
4322.8,-0.0604080967605114,0.007337771237901438
4328.66,-0.05905800312757492,0.00721871686905228
4334.52,-0.057148855179548264,0.007598157427789909
4340.4,-0.054675210267305374,0.007540753399702212
4346.28,-0.051656704396009445,0.007568852848860422
4352.16,-0.04811986908316612,0.007542671786718418
4358.06,-0.04408811405301094,0.00761581504732124
4363.96,-0.03961857408285141,0.007688573610624712
4369.88,-0.03474967181682587,0.007679741150313246
4375.8,-0.02955690026283264,0.0075376037417611745
4381.72,-0.024106690660119057,0.007766504537232625
4387.66,-0.018449144437909126,0.008686427006575069
4393.6,-0.012672463431954384,0.009017219910896282
4399.56,-0.006826609373092651,0.009663005035174359
4405.52,-0.000998050207272172,0.009596039616253455
4411.49,0.004759949631989002,0.009542071278520404
4417.46,0.010380277410149574,0.009569659347802663
4423.45,0.01583089493215084,0.00903160425118689
4429.44,0.021049704402685165,0.008768270216299008
4435.44,0.026010625064373016,0.009480117723268509
4441.45,0.03068644180893898,0.009602065214063442
4447.46,0.03505086153745651,0.009544911572797188
4453.49,0.039107684046030045,0.009478208995311465
4459.52,0.042838677763938904,0.009545936715600339
4465.56,0.04625280573964119,0.009574406778917974
4471.61,0.04935643821954727,0.009656465016685682
4477.67,0.0521591380238533,0.009733678677066556
4483.74,0.05467210337519646,0.009955976823798713
4489.81,0.05690287426114082,0.010461252214564426
4495.89,0.05886567011475563,0.010551869565654397
4501.98,0.06056708097457886,0.009929444746324569
4508.08,0.062009405344724655,0.00961210893047875
4514.19,0.06318962574005127,0.00911327200750676
4520.31,0.06409872323274612,0.00941270963729683
4526.43,0.0647202804684639,0.009510001115943632
4532.56,0.06503456830978394,0.009530993361769829
4538.7,0.06501404941082001,0.009642227997619572
4544.85,0.06462614983320236,0.010115545521157648
4551.01,0.06383442133665085,0.011504812560154032
4557.17,0.06260211020708084,0.012977363173753684
4563.35,0.06088673323392868,0.013795050539503343
4569.53,0.058655451983213425,0.014343444593303214
4575.72,0.055872369557619095,0.014449098428089842
4581.92,0.05250944942235947,0.014427642940010808
4588.13,0.048546627163887024,0.014489829878753526
4594.34,0.0439811572432518,0.014323500108826567
4600.57,0.038800887763500214,0.014003049922820227
4606.8,0.03303613141179085,0.013297067818422884
4613.04,0.02670818753540516,0.01287252769782953
4619.29,0.019860252737998962,0.012742450211711807
4625.55,0.012550094164907932,0.013479022767442898
4631.81,0.004861821886152029,0.013810220602639476
4638.09,-0.0031438132282346487,0.013749350049536193
4644.37,-0.011345774866640568,0.013640952609125973
4650.66,-0.019651109352707863,0.013699797549922404
4656.96,-0.027947645634412766,0.013874632312373427
4663.27,-0.036119040101766586,0.013601858383011286
4669.59,-0.04404780641198158,0.012259192319544622
4675.92,-0.05161844566464424,0.010765164842538264
4682.25,-0.05870945006608963,0.009614810054821246
4688.59,-0.06523183733224869,0.008836707134295801
4694.94,-0.07109518349170685,0.009469274520895476
4701.3,-0.07622277736663818,0.010261300790197752
4707.67,-0.08055377006530762,0.010973685182550473
4714.05,-0.08404490351676941,0.011233666487157857
4720.44,-0.08667166531085968,0.011307551463569472
4726.83,-0.08842609822750092,0.011355835041460064
4733.24,-0.08932910859584808,0.011251513472743401
4739.65,-0.08940916508436203,0.011043247256553018
4746.07,-0.088718943297863,0.010445674823054982
4752.5,-0.08732395619153976,0.010546197577046773
4758.94,-0.08530312031507492,0.011258808185652565
4765.38,-0.08275012671947479,0.012044398497514782
4771.84,-0.07975542545318604,0.013190360432071686
4778.3,-0.07642992585897446,0.014051120976412979
4784.78,-0.07286813110113144,0.014317486616325661
4791.26,-0.0691835954785347,0.01429263252255408
4797.75,-0.06546979397535324,0.014204083039944837
4804.25,-0.06181861087679863,0.014457793753123407
4810.76,-0.058312878012657166,0.014799473124831392
4817.28,-0.05502447485923767,0.014448417278224778
4823.8,-0.05201749876141548,0.014055967395117065
4830.34,-0.04932836443185806,0.01350827178644996
4836.88,-0.046998027712106705,0.013219465639615086
4843.43,-0.04504036158323288,0.013230771253580522
4849.99,-0.043460663408041,0.013504755062640776
4856.56,-0.04225195571780205,0.013552442235034308
4863.14,-0.04139625281095505,0.013552408315614462
4869.73,-0.04086609557271004,0.013393273268776587
4876.33,-0.04062633216381073,0.012753726894501459
4882.94,-0.04063595086336136,0.011953319467861507
4889.55,-0.040849678218364716,0.011220109814179872
4896.17,-0.041220322251319885,0.00990618427323769
4902.81,-0.04170142486691475,0.008354801763136107
4909.45,-0.042245615273714066,0.007682084092537517
4916.1,-0.042809922248125076,0.007821638696009417
4922.76,-0.043354302644729614,0.008332595609860704
4929.43,-0.04384295269846916,0.00823164223292503
4936.11,-0.04424472898244858,0.0073397377011079805
4942.79,-0.04453287646174431,0.006961234816678135
4949.49,-0.04468683898448944,0.007187765337371697
4956.2,-0.04468877241015434,0.007150981275118245
4962.91,-0.044525519013404846,0.007049206230388558
4969.63,-0.04418718442320824,0.006779695286514691
4976.37,-0.04366537928581238,0.0063403374865827825
4983.11,-0.042955536395311356,0.006223565981248226
4989.86,-0.04205244779586792,0.006224281615101783
4996.62,-0.040951941162347794,0.006281142296893777
5003.39,-0.039649948477745056,0.006209310778463889
5010.17,-0.03814219310879707,0.006302660204632395
5016.95,-0.0364266112446785,0.006291303344878932
5023.75,-0.03449360653758049,0.0064576850918161245
5030.55,-0.032343681901693344,0.006426876363546111
5037.37,-0.029966315254569054,0.00640920230939155
5044.19,-0.027364473789930344,0.006152746846000578
5051.03,-0.02452859841287136,0.005873914251826082
5057.87,-0.021466419100761414,0.005510182606172488
5064.72,-0.018176501616835594,0.0054835921279653855
5071.58,-0.014664365909993649,0.005209027167046835
5078.45,-0.010939091444015503,0.0043355155571649226
5085.33,-0.00701358076184988,0.003193085236676445
5092.22,-0.002904648194089532,0.003231952191405516
5099.12,0.0013670996995642781,0.00323109780293438
5106.03,0.005777596030384302,0.003213866249213258
5112.95,0.010299859568476677,0.003335048390804592
5119.87,0.014898091554641724,0.0033768398979765113
5126.81,0.0195551048964262,0.0032030689338062206
5133.75,0.024226997047662735,0.0032120192086364323
5140.71,0.02889752760529518,0.003474076571296989
5147.67,0.03352566063404083,0.0035243848413536827
5154.65,0.03810027986764908,0.0032163675729889015
5161.63,0.042587924748659134,0.0032583356068366194
5168.62,0.04698004201054573,0.00352317509014468
5175.62,0.051267109811306,0.0035904838735093397
5182.64,0.055451635271310806,0.0033836092071951123
5189.66,0.0595242865383625,0.0031153715921667575
5196.69,0.06349990516901016,0.003137770099462531
5203.73,0.06739268451929092,0.003100590855928439
5210.78,0.07122144103050232,0.003062376379244287
5217.84,0.07500848919153214,0.0031338132087889363
5224.91,0.07877830415964127,0.0035299418390674544
5231.98,0.08255055546760559,0.003758578312611154
5239.07,0.08635975420475006,0.003929672211147257
5246.17,0.09022153913974762,0.0037821475103177516
5253.28,0.09415218979120255,0.0038852189442661143
5260.39,0.09815601259469986,0.004343975735162357
5267.52,0.1022462546825409,0.004570326594382562
5274.66,0.10641039907932281,0.00422706374583464
5281.8,0.1106254830956459,0.00419058232440368
5288.96,0.11487558484077454,0.004180475019764487
5296.12,0.11911045759916306,0.004104178316889679
5303.3,0.1232929453253746,0.004190480850981204
5310.48,0.12735244631767273,0.004223041783586735
5317.67,0.13122734427452087,0.004210076680013531
5324.88,0.13484781980514526,0.004573197915144219
5332.09,0.13812300562858582,0.005090935008834329
5339.32,0.14097855985164642,0.0051011368405689496
5346.55,0.14332111179828644,0.005372613025405525
5353.79,0.145071879029274,0.005602900794817967
5361.05,0.14615292847156525,0.005512994789811974
5368.31,0.1464872509241104,0.005694457369243573
5375.58,0.14601296186447144,0.005652196690671133
5382.86,0.14467667043209076,0.005754381183988158
5390.16,0.14243465662002563,0.005617005284812779
5397.46,0.13926535844802856,0.005174758417915466
5404.77,0.13515594601631165,0.005048699695511425
5412.09,0.1301114559173584,0.005761269187198033
5419.42,0.12415330857038498,0.006443213066759661
5426.77,0.11730970442295074,0.006844414962158653
5434.12,0.10965126752853394,0.006856527754425316
5441.48,0.1012374609708786,0.006249138510844604
5448.85,0.0921490490436554,0.008460189866093128
5456.23,0.08247826248407364,0.00841122869744206
5463.62,0.0723269060254097,0.009559146891967777
5471.03,0.06179000064730644,0.01055449771949696
5478.44,0.05101022496819496,0.011030542020211044
5485.86,0.04009144380688667,0.011503399065582686
5493.29,0.029152119532227516,0.011815633177144041
5500.73,0.01830947771668434,0.01201755552014472
5508.18,0.0076775276102125645,0.012305201069364982
5515.65,-0.0026485216803848743,0.012319184035197354
5523.12,-0.012537974864244461,0.012176764787248107
5530.6,-0.02191053330898285,0.012095415820254295
5538.09,-0.030680611729621887,0.012098442583302749
5545.6,-0.038783248513936996,0.012078297226421028
5553.11,-0.04613059386610985,0.011896920931362695
5560.63,-0.052679967135190964,0.011479952441442598
5568.17,-0.058395665138959885,0.011188080772007048
5575.71,-0.0632292777299881,0.011017244466365423
5583.26,-0.06716854870319366,0.011148361886560784
5590.83,-0.07020747661590576,0.009777510747440783
5598.4,-0.0723375529050827,0.009840005725961396
5605.98,-0.07357511669397354,0.008204160866820942
5613.58,-0.07394182682037354,0.005780196140690407
5621.18,-0.07346651703119278,0.005567439991233928
5628.8,-0.07218927890062332,0.005268743120434245
5636.42,-0.07016149908304214,0.005146623207321574
5644.06,-0.06743628531694412,0.005447860537943012
5651.71,-0.06408068537712097,0.005301897537561396
5659.36,-0.060172341763973236,0.005479618445951355
5667.03,-0.05578063055872917,0.0053911074451714405
5674.71,-0.05099452659487724,0.0054451801545328474
5682.39,-0.04590987041592598,0.005400814729715343
5690.09,-0.04060644283890724,0.004990938204815069
5697.8,-0.03518551588058472,0.004640451716674046
5705.52,-0.02974306233227253,0.004800210707571867
5713.25,-0.024374468252062798,0.0050447163346865375
5720.99,-0.019172964617609978,0.005105818328297498
5728.74,-0.014227954670786858,0.005006330838997907
5736.5,-0.009623346850275993,0.005256033179051742
5744.27,-0.0054358821362257,0.005449599253601917
5752.05,-0.0017335524316877127,0.005352923991526964
5759.84,0.0014258627779781818,0.005466895986173658
5767.65,0.003999362699687481,0.00552623243052752
5775.46,0.005945805925875902,0.005590508749113621
5783.29,0.007250445894896984,0.00538911490451615
5791.12,0.007902384735643864,0.0051157540247319805
5798.97,0.007911170832812786,0.005132785261931419
5806.82,0.007296524941921234,0.005520359629450137
5814.69,0.006091051734983921,0.005852369836650364
5822.57,0.004339920356869698,0.00582918422594299
5830.45,0.0021014667581766844,0.005394976520741513
5838.35,-0.000565413327421993,0.00568772440319164
5846.26,-0.0035879213828593493,0.005739061660926371
5854.18,-0.006891187746077776,0.0057184744417008455
5862.11,-0.010398409329354763,0.005750667468781352
5870.05,-0.014033264480531216,0.005784085162068347
5878.01,-0.01772693172097206,0.005875138411603916
5885.97,-0.021401766687631607,0.005951901402600414
5893.94,-0.025001192465424538,0.005960680510431338
5901.93,-0.028477352112531662,0.0058872025355080635
5909.92,-0.03177949786186218,0.005521221934158876
5917.93,-0.034885603934526443,0.005278003080624954
5925.95,-0.03777278959751129,0.005008746360110771
5933.97,-0.04043135419487953,0.004905701366817291
5942.01,-0.042873602360486984,0.004899274374889335
5950.06,-0.04511226341128349,0.004870305818996169
5958.12,-0.04717336967587471,0.004499927684956989
5966.2,-0.04909338429570198,0.0042579497618827865
5974.28,-0.05090760812163353,0.004301912567406753
5982.37,-0.0526626780629158,0.0046803658555122606
5990.48,-0.05440635234117508,0.004474809094904662
5998.59,-0.05617908388376236,0.004443437674764574
6006.72,-0.058026738464832306,0.004382147056363748
6014.85,-0.05998074635863304,0.004150901404298971
6023.0,-0.062074072659015656,0.0041735871719542714
6031.16,-0.0643233209848404,0.004078965588203625
6039.33,-0.06673648208379745,0.004086905654901243
6047.52,-0.06931281834840775,0.004171480543109624
6055.71,-0.07202986627817154,0.004221319144712433
6063.91,-0.07486168295145035,0.004377776603981499
6072.13,-0.07777077704668045,0.004512652602546815
6080.35,-0.08069775998592377,0.0044668270585896865
6088.59,-0.08358722180128098,0.004502724861459066
6096.84,-0.08636461943387985,0.004505289966401578
6105.1,-0.08895252645015717,0.004596813873769865
6113.37,-0.09126928448677063,0.004596251080338562
6121.65,-0.09323141723871231,0.004448001556835801
6129.94,-0.09475607424974442,0.003982653010535441
6138.25,-0.09576469659805298,0.004048754373626615
6146.56,-0.09617988765239716,0.005773216487351643
6154.89,-0.09593658149242401,0.009376790240938201
6163.23,-0.09497641772031784,0.01032644894132154
6171.58,-0.09325362741947174,0.01038954413054395
6179.94,-0.09073520451784134,0.010397688597282963
6188.31,-0.0874018520116806,0.010336999547615086
6196.69,-0.08324858546257019,0.010195394937159334
6205.09,-0.07827899605035782,0.010024958193829743
6213.5,-0.07252099364995956,0.009920504670294629
6221.91,-0.06602005660533905,0.009687284644659656
6230.34,-0.05881219729781151,0.009452897615293603
6238.78,-0.05096670240163803,0.009379231436982416
6247.23,-0.04255634918808937,0.009148300961256678
6255.7,-0.03365212678909302,0.009019226785664958
6264.17,-0.024363143369555473,0.009013206152921779
6272.66,-0.014761856757104397,0.008929870873919235
6281.16,-0.004956216551363468,0.008771426107474597
6289.67,0.004954775795340538,0.008792355222920942
6298.19,0.014872296713292599,0.008940149320467309
6306.72,0.024699337780475616,0.008462020697044827
6315.26,0.0343422032892704,0.005217675853771242
6323.82,0.04372280463576317,0.003154094383882795
6332.38,0.052735585719347,0.0029481910197866564
6340.96,0.061325423419475555,0.0027059159228157575
6349.55,0.06941230595111847,0.0028300873334315057
6358.15,0.07693544775247574,0.0026224974682324685
6366.77,0.08385076373815536,0.002309040134367356
6375.39,0.09009836614131927,0.0022802932420987044
6384.03,0.09565949440002441,0.0021988444372128507
6392.68,0.10050121694803238,0.002290648992509308
6401.34,0.1046077087521553,0.002314018305631673
6410.01,0.1079719290137291,0.0024330159251625206
6418.7,0.1105983629822731,0.0028455176262858098
6427.39,0.11248963326215744,0.0028453853279189274
6436.1,0.11366800963878632,0.00275967013123765
6444.82,0.11415455490350723,0.002984020471835288
6453.55,0.11397963017225266,0.003484499760927033
6462.29,0.11317917704582214,0.003616381027739652
6471.04,0.11179390549659729,0.003870106936534086
6479.81,0.10986623913049698,0.005490092922627787
6488.59,0.1074448898434639,0.007509679240494911
6497.38,0.10457974672317505,0.007446865025391287
6506.18,0.10132183879613876,0.0074640893386436384
6515.0,0.09771828353404999,0.007282481250360676
6523.82,0.09382738173007965,0.007168254542671903
6532.66,0.08968950808048248,0.007155053724375832
6541.51,0.08535520732402802,0.0073640042366942575
6550.37,0.08086766302585602,0.007380282850674954
6559.25,0.0762609988451004,0.00706709855791703
6568.13,0.0715804472565651,0.007007352811298297
6577.03,0.0668458342552185,0.0069956587567934925
6585.94,0.062087830156087875,0.007013640248569581
6594.86,0.05732705816626549,0.007149948461932374
6603.8,0.05257423594594002,0.007145987478063368
6612.74,0.04785187914967537,0.00718125978895605
6621.7,0.04315770044922829,0.0072850255760099365
6630.67,0.0385025255382061,0.007434667043033331
6639.65,0.03388996049761772,0.007586335951111487
6648.65,0.029317660257220268,0.006637247209482782
6657.66,0.024793725460767746,0.003752598171333307
6666.68,0.020322348922491074,0.0032155854249710228
6675.71,0.01591004990041256,0.002973704586788032
6684.75,0.011566640809178352,0.0033743810818666
6693.81,0.007301341742277145,0.003976385396051433
6702.88,0.0031377780251204967,0.00574750494628605
6711.96,-0.0009001238504424691,0.01542977220947694
6721.05,-0.004783102311193943,0.020659255043434667
6730.15,-0.00847670529037714,0.021742349590680506
6739.27,-0.011945533566176891,0.02371541926095277
6748.4,-0.015141986310482025,0.024337594529213635
6757.54,-0.018019767478108406,0.025651690711457207
6766.7,-0.020533667877316475,0.026432907448291392
6775.86,-0.02262970618903637,0.02663449579944471
6785.04,-0.024266386404633522,0.026639873882654937
6794.24,-0.025399111211299896,0.026724673173496243
6803.44,-0.02598716877400875,0.026753899857795062
6812.66,-0.026001978665590286,0.026855273749690347
6821.89,-0.02542096935212612,0.026871986069342657
6831.13,-0.024233559146523476,0.026891736314209283
6840.38,-0.022441307082772255,0.026905272565913362
6849.65,-0.020056409761309624,0.026880655150066553
6858.93,-0.017108924686908722,0.026858805879579693
6868.22,-0.01364186778664589,0.02701996245511391
6877.52,-0.00971232820302248,0.0267849714650453
