wvl,flux,err
4001.77,0.23203018307685852,0.020969808536276613
4007.19,0.2371603399515152,0.026599972660664654
4012.62,0.24039798974990845,0.049641640957747105
4018.06,0.2461506426334381,0.05087893865525146
4023.5,0.2562626898288727,0.04525234930528786
4028.95,0.27008217573165894,0.044769798624285866
4034.41,0.284913033246994,0.05171986435019685
4039.88,0.2970667779445648,0.05077561624531348
4045.35,0.3032083213329315,0.04955869380188343
4050.83,0.30141520500183105,0.04758223224267148
4056.32,0.29121267795562744,0.0482136857552977
4061.81,0.2726554274559021,0.048636128539372964
4067.32,0.2447739839553833,0.04548467103085125
4072.83,0.2053651660680771,0.047084497811884285
4078.34,0.15205395221710205,0.045860921949969866
4083.87,0.08501646667718887,0.04859500825247796
4089.4,0.01070152223110199,0.04577316811826512
4094.94,-0.05819365382194519,0.04669618578417893
4100.49,-0.10526074469089508,0.047715265872682634
4106.04,-0.11692333966493607,0.04645247452851705
4111.61,-0.08945471793413162,0.04663136841779506
4117.18,-0.03285445272922516,0.04527172657487899
4122.75,0.031341634690761566,0.045090295394129926
4128.34,0.07824654877185822,0.04633892616868249
4133.93,0.08926647901535034,0.04803159695158844
4139.53,0.06053179129958153,0.05458840623875111
4145.14,0.003746884409338236,0.05527325113517879
4150.75,-0.05951337888836861,0.05459612961719626
4156.38,-0.10824232548475266,0.054561131611765366
4162.01,-0.13009071350097656,0.05566763229559308
4167.65,-0.1253836452960968,0.05449847615522639
4173.29,-0.10360882431268692,0.05473544638378361
4178.95,-0.07643253356218338,0.05305692570802998
4184.61,-0.05187598615884781,0.05693306725615893
4190.28,-0.03230581432580948,0.055606909631860754
4195.95,-0.017457466572523117,0.05609659181925665
4201.64,-0.008680297061800957,0.0588043047278611
4207.33,-0.011058906093239784,0.05788433014905271
4213.03,-0.030621152371168137,0.058007765243041236
4218.74,-0.0687146931886673,0.05964000484272218
4224.45,-0.11727023124694824,0.060383545162496055
4230.18,-0.15975478291511536,0.05489313530602731
4235.91,-0.17752470076084137,0.0539942791368393
4241.64,-0.16021735966205597,0.05509980887240775
4247.39,-0.11231954395771027,0.04749466174167467
4253.14,-0.05261289328336716,0.04921295618376648
4258.91,-0.004923372529447079,0.04849168735400929
4264.68,0.013742882758378983,0.05415463480682295
4270.45,0.002747875638306141,0.054656610483924895
4276.24,-0.022854413837194443,0.0547856238013628
4282.03,-0.04164062812924385,0.05498040634769309
4287.83,-0.039201874285936356,0.05507008405332304
4293.64,-0.017048895359039307,0.05010651259243519
4299.46,0.008166026324033737,0.056648126266507136
4305.28,0.01506063248962164,0.05676310211273589
4311.12,-0.008498379029333591,0.05671742113306574
4316.96,-0.05674568936228752,0.056586834265344735
4322.8,-0.10794021189212799,0.05682814317151283
4328.66,-0.1366986632347107,0.05528752304725379
4334.52,-0.12842047214508057,0.054344832253204
4340.4,-0.08892342448234558,0.0533185887464179
4346.28,-0.04218772426247597,0.055429450648254865
4352.16,-0.01774010621011257,0.05739730610234748
4358.06,-0.034849863499403,0.058005526576028206
4363.96,-0.09275650233030319,0.05472114989020071
4369.88,-0.1715192347764969,0.06461855785337695
4375.8,-0.2422986626625061,0.06311455885157068
4381.72,-0.28209444880485535,0.06214167170654972
4387.66,-0.2831878364086151,0.06433709017944714
4393.6,-0.2532813251018524,0.06572870088851095
4399.56,-0.20860430598258972,0.06571638442962488
4405.52,-0.1645880937576294,0.06702927196695728
4411.49,-0.12971849739551544,0.06129307500357326
4417.46,-0.10623349249362946,0.061627699403282284
4423.45,-0.09440070390701294,0.062009929422517984
4429.44,-0.0966888964176178,0.06270631888876162
4435.44,-0.11707721650600433,0.06207107633499277
4441.45,-0.15659357607364655,0.06224459145109877
4447.46,-0.20826949179172516,0.0629344871820071
4453.49,-0.25695523619651794,0.0626542914909932
4459.52,-0.2845684885978699,0.06184988259090807
4465.56,-0.2800996005535126,0.05951481277209139
4471.61,-0.2464427351951599,0.0631947322242798
4477.67,-0.20022302865982056,0.06645190879467547
4483.74,-0.16315242648124695,0.056276616412834206
4489.81,-0.14951197803020477,0.05500710740156672
4495.89,-0.15704455971717834,0.055820587827851334
4501.98,-0.16769829392433167,0.05263128287959824
4508.08,-0.1577134132385254,0.05114914759076045
4514.19,-0.11184048652648926,0.05096181706057912
4520.31,-0.03321874141693115,0.052174324687116094
4526.43,0.05701834335923195,0.048496274979667436
4532.56,0.13117192685604095,0.04882535090392373
4538.7,0.16960619390010834,0.04729012895557977
4544.85,0.17121542990207672,0.04970460046955788
4551.01,0.15332499146461487,0.050179963746103215
4557.17,0.14145489037036896,0.049976561554161754
4563.35,0.1550307422876358,0.04942158803922743
4569.53,0.19769608974456787,0.04800957085396362
4575.72,0.25699421763420105,0.051624405744080434
4581.92,0.31286460161209106,0.05253409006264261
4588.13,0.3489261567592621,0.04705618553428573
4594.34,0.3596797585487366,0.04366791936422961
4600.57,0.3500838875770569,0.04261533507337797
4606.8,0.32878461480140686,0.043768832821183795
4613.04,0.3010842502117157,0.042431456096508224
4619.29,0.266557514667511,0.04217608155216839
4625.55,0.22286568582057953,0.042157207529472836
4631.81,0.172425776720047,0.04629951411205652
4638.09,0.12575289607048035,0.041786725771683166
4644.37,0.09881631284952164,0.04192719464867196
4650.66,0.10343370586633682,0.044674647573376386
4656.96,0.13820333778858185,0.04942049518983159
4663.27,0.1853388100862503,0.047303608734857124
4669.59,0.21728697419166565,0.04681983905144332
4675.92,0.2105168253183365,0.046112152057034624
4682.25,0.15914876759052277,0.04594645887082964
4688.59,0.08004236966371536,0.046254875085754474
4694.94,0.00583829777315259,0.0436485326035948
4701.3,-0.03087916597723961,0.042567869904884925
4707.67,-0.014222059398889542,0.042682226393892485
4714.05,0.04658552631735802,0.040890178678239145
4720.44,0.12161605060100555,0.04160458510968703
4726.83,0.17503678798675537,0.041538876905346966
4733.24,0.18295252323150635,0.04169989043460773
4739.65,0.14372509717941284,0.04412785320581182
4746.07,0.07766565680503845,0.04560974124505924
4752.5,0.015537773258984089,0.04220783989185886
4758.94,-0.016633065417408943,0.04381604346467052
4765.38,-0.009120382368564606,0.04406285868656342
4771.84,0.02873583696782589,0.04217052811194321
4778.3,0.07466016709804535,0.03645214663477772
4784.78,0.10437376797199249,0.03707894914817006
4791.26,0.1010347232222557,0.04599921396188074
4797.75,0.06062043458223343,0.04695961481672514
4804.25,-0.008995013311505318,0.050103724515234045
4810.76,-0.09224928915500641,0.04980930564012219
4817.28,-0.17110367119312286,0.049642138223791536
4823.8,-0.22928322851657867,0.04923890828023429
4830.34,-0.25576460361480713,0.04937318633805091
4836.88,-0.24634835124015808,0.04919601088312234
4843.43,-0.20564031600952148,0.04916996293405732
4849.99,-0.14664800465106964,0.04715486730880273
4856.56,-0.08826617896556854,0.04732176377119563
4863.14,-0.04999355599284172,0.04803122200801071
4869.73,-0.045407067984342575,0.046959796142947596
4876.33,-0.07707314938306808,0.04747789991741768
4882.94,-0.13543587923049927,0.043452597784691446
4889.55,-0.20241470634937286,0.0491414622170322
4896.17,-0.25868135690689087,0.048424311247542505
4902.81,-0.2903222143650055,0.048455667558189836
4909.45,-0.2923373878002167,0.0484649024784432
4916.1,-0.2682259976863861,0.04395159997463155
4922.76,-0.22542376816272736,0.04848630323979031
4929.43,-0.17055781185626984,0.044648341591656614
4936.11,-0.10676608234643936,0.04611878540309563
4942.79,-0.03437988832592964,0.046105695081500905
4949.49,0.04667622596025467,0.04744047723274202
4956.2,0.1334836184978485,0.046560350646455285
4962.91,0.2196253538131714,0.04659002716538023
4969.63,0.2972307801246643,0.04959153492446493
4976.37,0.35967394709587097,0.05149114241977424
4983.11,0.4035767614841461,0.053993263035554864
4989.86,0.4295971989631653,0.05265304828486122
4996.62,0.4400227665901184,0.055075996643110046
5003.39,0.436198353767395,0.054563733091397275
5010.17,0.4168876111507416,0.05386769983835463
5016.95,0.3787953555583954,0.04590774486481173
5023.75,0.31868040561676025,0.04631644498847864
5030.55,0.2365284562110901,0.04722400938021449
5037.37,0.1367303878068924,0.047962629339430185
5044.19,0.028765741735696793,0.04516502910852657
5051.03,-0.07571014761924744,0.037418069702611294
5057.87,-0.16441188752651215,0.03721004228836163
5064.72,-0.22798286378383636,0.03870558490435906
5071.58,-0.26094239950180054,0.038957171154563645
5078.45,-0.26245594024658203,0.037883630966003945
5085.33,-0.2361586093902588,0.037634822592377784
5092.22,-0.18936872482299805,0.03832718295990101
5099.12,-0.13173581659793854,0.03716428174802534
5106.03,-0.07338357716798782,0.036882711699252134
5112.95,-0.022846592590212822,0.035080686771406445
5119.87,0.014559198170900345,0.03810255477854043
5126.81,0.03764663636684418,0.03451990163636847
5133.75,0.048330143094062805,0.033474469866291275
5140.71,0.05036595091223717,0.033470399555731126
5147.67,0.04732104018330574,0.03327385961185934
5154.65,0.04145219922065735,0.03392852361608198
5161.63,0.03348724916577339,0.03628487545187988
5168.62,0.023183681070804596,0.03511242059867268
5175.62,0.010139292106032372,0.03784658421274705
5182.64,-0.005764524452388287,0.038221033395575595
5189.66,-0.02420963905751705,0.03837495033751037
5196.69,-0.04458743706345558,0.03719944266068992
5203.73,-0.0656740739941597,0.0367885253195673
5210.78,-0.08515078574419022,0.0367096116107316
5217.84,-0.09934065490961075,0.03648692606740735
5224.91,-0.10379454493522644,0.035355216758598734
5231.98,-0.09491224586963654,0.035539506873447965
5239.07,-0.07192479819059372,0.034497753776688546
5246.17,-0.0381203256547451,0.03201459726460857
5253.28,-0.0002132496883859858,0.02829476519566086
5260.39,0.034224532544612885,0.028569681190690675
5267.52,0.06040345877408981,0.029403054777207956
5274.66,0.07834924757480621,0.029419643619722068
5281.8,0.09284069389104843,0.03033902034176564
5288.96,0.11039899289608002,0.02999930709363609
5296.12,0.13486379384994507,0.02552606559811232
5303.3,0.16455501317977905,0.025519744949453062
5310.48,0.19216704368591309,0.022531542866545993
5317.67,0.20856165885925293,0.021527603453868647
5324.88,0.20775704085826874,0.021682989382955396
5332.09,0.19082288444042206,0.022623829922952993
5339.32,0.16622500121593475,0.022839126791290337
5346.55,0.14623992145061493,0.023391143856207577
5353.79,0.14099179208278656,0.0239651233074172
5361.05,0.15373565256595612,0.02296478858948347
5368.31,0.17939719557762146,0.018667411732509246
5375.58,0.20730869472026825,0.01951912086463756
5382.86,0.22639136016368866,0.019496003491026124
5390.16,0.22995562851428986,0.019473711227350598
5397.46,0.21767449378967285,0.0210544243646937
5404.77,0.19424889981746674,0.019612193627065982
5412.09,0.16576676070690155,0.02110128310635993
5419.42,0.13646294176578522,0.02118027765723749
5426.77,0.1076354831457138,0.022656417294411587
5434.12,0.07932698726654053,0.02373292591648664
5441.48,0.052827589213848114,0.026253900320975864
5448.85,0.03267042711377144,0.02606848386629752
5456.23,0.026004182174801826,0.02608359279358157
5463.62,0.039622895419597626,0.025554030807857075
5471.03,0.0762396827340126,0.025567898857042966
5478.44,0.1319064050912857,0.027807718723029833
5485.86,0.1966758519411087,0.028426867833321042
5493.29,0.25777482986450195,0.028218080842157347
5500.73,0.30415624380111694,0.02897704039121258
5508.18,0.33009201288223267,0.02884888828216383
5515.65,0.33617496490478516,0.029481670022193842
5523.12,0.32738903164863586,0.03278669156509815
5530.6,0.30965983867645264,0.03277820466826923
5538.09,0.28645628690719604,0.03183884028032672
5545.6,0.25747737288475037,0.03164292796250225
5553.11,0.22004686295986176,0.03329988246798761
5560.63,0.17193840444087982,0.03291615343649755
5568.17,0.11451423913240433,0.031106670683286906
5575.71,0.05436583608388901,0.030794662501313557
5583.26,0.001612471416592598,0.029398874555228674
5590.83,-0.03338848054409027,0.029742008570949007
5598.4,-0.04408644884824753,0.029673976121314106
5605.98,-0.03100607730448246,0.029705390513120364
5613.58,-0.0015897443518042564,0.03063942645758041
5621.18,0.03231586515903473,0.03070011688315707
5628.8,0.05902944877743721,0.03633472433386809
5636.42,0.07061100006103516,0.03578237115503915
5644.06,0.06464356184005737,0.03571499966439453
5651.71,0.04264473915100098,0.035581753141320574
5659.36,0.0070335958153009415,0.03551152751769635
5667.03,-0.04193611070513725,0.03419224538727873
5674.71,-0.10645174235105515,0.03403935350604401
5682.39,-0.18875223398208618,0.03377730098787016
5690.09,-0.2875240743160248,0.03543045819849245
5697.8,-0.39442843198776245,0.031784637117155436
5705.52,-0.49500295519828796,0.032292182720723185
5713.25,-0.573100209236145,0.038597165258846024
5720.99,-0.6174584627151489,0.042069690744373
5728.74,-0.6267955303192139,0.04456148640934642
5736.5,-0.6102683544158936,0.047802662137653704
5744.27,-0.582486093044281,0.048799773344807736
5752.05,-0.5553610920906067,0.04941135871686088
5759.84,-0.5311386585235596,0.04891641191493866
5767.65,-0.5005782842636108,0.04654926752285341
5775.46,-0.4478098452091217,0.0372956491712374
5783.29,-0.35897308588027954,0.03437837435134669
5791.12,-0.23107574880123138,0.03259279327824289
5798.97,-0.07440247386693954,0.03228481795868254
5806.82,0.09015452116727829,0.04104887268658273
5814.69,0.24102988839149475,0.04386947332964393
5822.57,0.36318403482437134,0.04427692214019838
5830.45,0.4528522789478302,0.04403531898548166
5838.35,0.5155447721481323,0.045420675752798824
5846.26,0.5587305426597595,0.04713953159036052
5854.18,0.5861574411392212,0.048736258157262076
5862.11,0.5957159996032715,0.04667877349396938
5870.05,0.5827659964561462,0.04535030212533398
5878.01,0.5461472868919373,0.043363404489433675
5885.97,0.4926757216453552,0.04161919859810148
5893.94,0.4361634850502014,0.040528928379493234
5901.93,0.3915153741836548,0.03818642020674602
5909.92,0.36731070280075073,0.03399170949487012
5917.93,0.36081066727638245,0.032133659735080006
5925.95,0.35986703634262085,0.03217585563228789
5933.97,0.34980452060699463,0.03176721333758499
5942.01,0.32190564274787903,0.029608716781559238
5950.06,0.27820974588394165,0.02971978038319908
5958.12,0.22983761131763458,0.02505010095545049
5966.2,0.1899610310792923,0.024961740570784218
5974.28,0.16613319516181946,0.020033629357172976
5982.37,0.15597504377365112,0.020116544197591936
5990.48,0.14962507784366608,0.02012449996573843
5998.59,0.13635076582431793,0.019442994043070743
6006.72,0.11111430078744888,0.019578575156763655
6014.85,0.07707042992115021,0.018490128776805965
6023.0,0.042192552238702774,0.016262145442770267
6031.16,0.01328298356384039,0.02027951109629185
6039.33,-0.008925880305469036,0.021156301792726054
6047.52,-0.029593195766210556,0.020890884225737434
6055.71,-0.05460734665393829,0.019971982268762838
6063.91,-0.08436717092990875,0.02310850368620255
6072.13,-0.11088205873966217,0.02549909951095371
6080.35,-0.12104828655719757,0.026461072070693363
6088.59,-0.10506422072649002,0.028910859959145867
6096.84,-0.0643230453133583,0.030286219390601173
6105.1,-0.014011792838573456,0.030730271844524967
6113.37,0.022514140233397484,0.030567427755122736
6121.65,0.024991242215037346,0.029194664330251075
6129.94,-0.012897204607725143,0.029148155347744936
6138.25,-0.07937464863061905,0.029752521496638804
6146.56,-0.1492973268032074,0.029743428743611806
6154.89,-0.19638539850711823,0.029153143636260308
6163.23,-0.2048385590314865,0.029756753867153384
6171.58,-0.1758510023355484,0.029798116465411983
6179.94,-0.12487011402845383,0.029825953147327635
6188.31,-0.0723743736743927,0.032018421307112105
6196.69,-0.03378770872950554,0.03125624223630704
6205.09,-0.014068031683564186,0.03157737061954025
6213.5,-0.00929041113704443,0.03197372622104538
6221.91,-0.012636414729058743,0.03154517006809776
6230.34,-0.02060551382601261,0.029851145633226
6238.78,-0.03503626585006714,0.029159681865697985
6247.23,-0.06027538701891899,0.02881593258728474
6255.7,-0.09831937402486801,0.02692958664281851
6264.17,-0.14580821990966797,0.026032780498852295
6272.66,-0.1960269957780838,0.025625829949175026
6281.16,-0.24381880462169647,0.03403515040462554
6289.67,-0.29061558842658997,0.0445111244678855
6298.19,-0.3446642756462097,0.0466847290029633
6306.72,-0.41540664434432983,0.049472548738763916
6315.26,-0.5047428011894226,0.04970746183651347
6323.82,-0.6007500290870667,0.04945678007846275
6332.38,-0.6779842972755432,0.04945439953470754
6340.96,-0.7071610689163208,0.04936799911665191
6349.55,-0.6677433848381042,0.04668847145165848
6358.15,-0.5593157410621643,0.04664095169273522
6366.77,-0.40374433994293213,0.04581151846321855
6375.39,-0.23808617889881134,0.04490168787536262
6384.03,-0.09891034662723541,0.042794086456241616
6392.68,-0.009273997507989407,0.042241841558157966
6401.34,0.029320772737264633,0.041044705408912134
6410.01,0.034045200794935226,0.0380014871715193
6418.7,0.030244680121541023,0.03767784951206872
6427.39,0.03895103558897972,0.04121381588499112
6436.1,0.06838103383779526,0.0453811545404666
6444.82,0.1127195656299591,0.04488769459191918
6453.55,0.15740592777729034,0.03700107382510999
6462.29,0.1870959997177124,0.03428597636671484
6471.04,0.19189979135990143,0.03024060267268859
6479.81,0.16941477358341217,0.030194851407096684
6488.59,0.12300537526607513,0.03272093901094703
6497.38,0.05866382643580437,0.045858618318072523
6506.18,-0.017185669392347336,0.04615830183812705
6515.0,-0.09785076230764389,0.04995803556305032
6523.82,-0.1748039275407791,0.0502050487543572
6532.66,-0.2376510500907898,0.05019910345854513
6541.51,-0.2747732400894165,0.050391721416924266
6550.37,-0.27684709429740906,0.050581650303222765
6559.25,-0.24026599526405334,0.05052540074627794
6568.13,-0.16929350793361664,0.05028292385903884
6577.03,-0.0751364603638649,0.05029289774161037
6585.94,0.026924103498458862,0.0503136842684925
6594.86,0.12201905995607376,0.04745997726871351
6603.8,0.19927148520946503,0.044844081150239516
6612.74,0.25303205847740173,0.04249259180300008
6621.7,0.28309279680252075,0.04253721698417386
6630.67,0.2924875319004059,0.04251442280771736
6639.65,0.2860069274902344,0.04390657021462466
6648.65,0.2688044607639313,0.04377755466190309
6657.66,0.2457524538040161,0.040246276446349816
6666.68,0.22101576626300812,0.027486880184707473
6675.71,0.19761498272418976,0.02730083918488199
6684.75,0.1769992709159851,0.018210528100789852
6693.81,0.15890070796012878,0.016181253482320544
6702.88,0.14186695218086243,0.017795743593045515
6711.96,0.12423127889633179,0.01623896878389958
6721.05,0.10531778633594513,0.016053238670131916
6730.15,0.08611520379781723,0.01623485596064965
6739.27,0.06897194683551788,0.016406534646352396
6748.4,0.056460119783878326,0.015638303739977686
6757.54,0.049761466681957245,0.015008498366794285
6766.7,0.047636181116104126,0.01644781571894088
6775.86,0.046537403017282486,0.016505130457897924
6785.04,0.04193441942334175,0.01667427853286535
6794.24,0.030345704406499863,0.01661930703016399
6803.44,0.011084293946623802,0.017225650247642183
6812.66,-0.01338245254009962,0.020041566800946337
6821.89,-0.0385696142911911,0.019604263405081947
6831.13,-0.060521651059389114,0.019974290995313934
6840.38,-0.07838506996631622,0.020066553891311078
6849.65,-0.09572844952344894,0.02489753100613372
6858.93,-0.1195790097117424,0.029098042010325988
6868.22,-0.1573764979839325,0.034612816913636636
6877.52,-0.21280650794506073,0.03689581262277697
6886.84,-0.282552033662796,0.03682864293424525
6896.17,-0.3552914261817932,0.03682853894469578
6905.51,-0.4143483340740204,0.03662692691266692
6914.87,-0.44276487827301025,0.03736016072945718
6924.24,-0.4288618862628937,0.039460508465249095
6933.62,-0.37058597803115845,0.04066424302621788
6943.01,-0.27622416615486145,0.04267303254296999
6952.42,-0.16153600811958313,0.037777982618597945
6961.83,-0.045216359198093414,0.035887563589494756
6971.27,0.05725942552089691,0.03889430934459897
