wvl,flux,err
4001.77,0.30325767397880554,0.12274231207579417
4007.19,0.43619245290756226,0.06928811200328774
4012.62,0.5224735140800476,0.05801980860918282
4018.06,0.5507410168647766,0.05013336237060475
4023.5,0.5330970287322998,0.046130754959334094
4028.95,0.495317667722702,0.04221467640959074
4034.41,0.4613298177719116,0.03898852853777334
4039.88,0.4408367872238159,0.037849839117298244
4045.35,0.42688608169555664,0.03585370181200734
4050.83,0.40366286039352417,0.03391812596664689
4056.32,0.35868003964424133,0.02441885572555581
4061.81,0.29137566685676575,0.024321631753163937
4067.32,0.21240366995334625,0.01939590268463727
4072.83,0.13675683736801147,0.018560438669342937
4078.34,0.07334194332361221,0.0177739256005522
4083.87,0.020324327051639557,0.0189625865508218
4089.4,-0.03139348328113556,0.019171956822868538
4094.94,-0.09076570719480515,0.018270490729224764
4100.49,-0.1586443930864334,0.01792188534955414
4106.04,-0.22595636546611786,0.01812212249135533
4111.61,-0.2792585492134094,0.017993696379835042
4117.18,-0.30844518542289734,0.018045228192796442
4122.75,-0.31363576650619507,0.017920807393718017
4128.34,-0.3048044741153717,0.017957742609663166
4133.93,-0.29596269130706787,0.014773574054944713
4139.53,-0.2973795533180237,0.013804300729363936
4145.14,-0.31091535091400146,0.012932097270175632
4150.75,-0.33094048500061035,0.01271838223465597
4156.38,-0.3498060405254364,0.012323008906601911
4162.01,-0.36332008242607117,0.012287237852868567
4167.65,-0.3731688857078552,0.012229619154659779
4173.29,-0.38431814312934875,0.011502078572034596
4178.95,-0.4002131521701813,0.011407165051860842
4184.61,-0.41900354623794556,0.01180232715031912
4190.28,-0.43400800228118896,0.01154171303186119
4195.95,-0.4376303255558014,0.011330203139121479
4201.64,-0.4263509511947632,0.011113130388943218
4207.33,-0.4031555652618408,0.010426148410639373
4213.03,-0.37597620487213135,0.010446702933399474
4218.74,-0.3532550632953644,0.01034661582360952
4224.45,-0.3396303951740265,0.011732847162114502
4230.18,-0.3342932462692261,0.011642247140121844
4235.91,-0.33313554525375366,0.011604812818389744
4241.64,-0.33235952258110046,0.012047957716371197
4247.39,-0.3313428461551666,0.014037679725421337
4253.14,-0.332629531621933,0.014164147269968546
4258.91,-0.33937904238700867,0.0160363795480203
4264.68,-0.3522475063800812,0.016064568682919358
4270.45,-0.3680303692817688,0.01582692517595228
4276.24,-0.38111039996147156,0.016413821811007222
4282.03,-0.3864094018936157,0.015584138802615157
4287.83,-0.38236045837402344,0.015309909526567559
4293.64,-0.3714846074581146,0.015233280548606582
4299.46,-0.3587043583393097,0.015052910488611265
4305.28,-0.3484888970851898,0.014757429177686108
4311.12,-0.3425983488559723,0.014776990875856969
4316.96,-0.3399270474910736,0.014659453730441618
4322.8,-0.3378337621688843,0.014650063056713158
4328.66,-0.3341185450553894,0.014686639570149304
4334.52,-0.328146755695343,0.0134370904535936
4340.4,-0.3206202983856201,0.013377522945119095
4346.28,-0.3126857280731201,0.014839586226093344
4352.16,-0.30509713292121887,0.015182450976328987
4358.06,-0.2982090413570404,0.013347313322947555
4363.96,-0.2926277816295624,0.0133460707368059
4369.88,-0.2895175516605377,0.011523272551432652
4375.8,-0.2903297245502472,0.011642674104284496
4381.72,-0.29575395584106445,0.01159815547693418
4387.66,-0.30494940280914307,0.01053407474638979
4393.6,-0.31559520959854126,0.010584528445782728
4399.56,-0.3251635730266571,0.011579113903672897
4405.52,-0.3323153555393219,0.012035729636237278
4411.49,-0.33771827816963196,0.012400478181889598
4417.46,-0.34317389130592346,0.015018872148435941
4423.45,-0.34976381063461304,0.015322167544322954
4429.44,-0.35604432225227356,0.015086375974066776
4435.44,-0.35787609219551086,0.015830223290346328
4441.45,-0.35007020831108093,0.01632827384429599
4447.46,-0.32917094230651855,0.01681408586867439
4453.49,-0.2954489290714264,0.016783573833860116
4459.52,-0.2531736493110657,0.014297465006468774
4465.56,-0.20817965269088745,0.015103010217461734
4471.61,-0.16489222645759583,0.014242154868637466
4477.67,-0.12407460808753967,0.01341364863359867
4483.74,-0.08288763463497162,0.012497961235944188
4489.81,-0.0372525230050087,0.01272390989737007
4495.89,0.015271401964128017,0.012252128649093991
4501.98,0.0733485296368599,0.011410482697131817
4508.08,0.1322731077671051,0.010784423105090613
4514.19,0.18633441627025604,0.011476556376806491
4520.31,0.23173749446868896,0.011536004559856317
4526.43,0.2682930529117584,0.011575353041989228
4532.56,0.29927489161491394,0.010933313004457237
4538.7,0.32913607358932495,0.011363461037257822
4544.85,0.36119896173477173,0.013708762673539994
4551.01,0.39625802636146545,0.01342123355016073
4557.17,0.43270015716552734,0.014296659512882245
4563.35,0.4680488407611847,0.014579560443509056
4569.53,0.4999513328075409,0.01686503251747221
4575.72,0.5272074937820435,0.017091667984527915
4581.92,0.5492335557937622,0.01702308892634563
4588.13,0.5654357075691223,0.017367257278540264
4594.34,0.5748270153999329,0.017499464792018242
4600.57,0.5763686895370483,0.01828394808795178
4606.8,0.5694833993911743,0.01834162814950409
4613.04,0.5545371770858765,0.017962202398415675
4619.29,0.5325517654418945,0.017349620110528034
4625.55,0.5045062303543091,0.01597009877398532
4631.81,0.4708097577095032,0.016341522180505882
4638.09,0.43122774362564087,0.015806585631623547
4644.37,0.3861573338508606,0.014791956371887625
4650.66,0.3373284339904785,0.014283685614793153
4656.96,0.28842487931251526,0.013990086432838375
4663.27,0.24421057105064392,0.013949067820747384
4669.59,0.20874826610088348,0.012340544245672705
4675.92,0.18362165987491608,0.013312482024072928
4682.25,0.16727595031261444,0.013310596046157834
4688.59,0.15582714974880219,0.013089317631952266
4694.94,0.14521121978759766,0.013570657167183283
4701.3,0.13307777047157288,0.013823045078702726
4707.67,0.11954673379659653,0.01365410798579301
4714.05,0.10640083253383636,0.014753935635168854
4720.44,0.0953434556722641,0.014594217656206995
4726.83,0.08654111623764038,0.01315782058405922
4733.24,0.078327476978302,0.013078406811253326
4739.65,0.0683547705411911,0.013989163597845463
4746.07,0.05493784695863724,0.0174046918858897
4752.5,0.037757355719804764,0.01658934321131381
4758.94,0.017129117622971535,0.020131880056111155
4765.38,-0.007515809964388609,0.0250277897581302
4771.84,-0.03879798576235771,0.027987919762756473
4778.3,-0.08032570034265518,0.028661993183798196
4784.78,-0.13429127633571625,0.028602740139747448
4791.26,-0.1976059377193451,0.028707733434108654
4797.75,-0.2606072723865509,0.02856790790610114
4804.25,-0.3084326684474945,0.02852604935925623
4810.76,-0.3262259066104889,0.02851689828228504
4817.28,-0.3057447373867035,0.02796499335844061
4823.8,-0.2502484619617462,0.02820792547214294
4830.34,-0.17440752685070038,0.028098285912879807
4836.88,-0.09979556500911713,0.02780028129086873
4843.43,-0.046103861182928085,0.027991892736438897
4849.99,-0.023994868621230125,0.028196601267815504
4856.56,-0.03161744773387909,0.027844947640103205
4863.14,-0.05679170414805412,0.026373540430211072
4869.73,-0.08338113874197006,0.021040443470012684
4876.33,-0.09843631088733673,0.019440854075545855
4882.94,-0.0965852364897728,0.018724428984016724
4889.55,-0.07995514571666718,0.01638439212351813
4896.17,-0.05436839908361435,0.014081838874469822
4902.81,-0.02460627630352974,0.013848410924987717
4909.45,0.008132253773510456,0.014243354595490513
4916.1,0.04598560929298401,0.016781821465150757
4922.76,0.09131629765033722,0.017794651026821526
4929.43,0.14359182119369507,0.01903794498366427
4936.11,0.1981407254934311,0.020274595502127075
4942.79,0.2474590539932251,0.022071913976576006
4949.49,0.28450503945350647,0.02326603322503073
4956.2,0.3048432767391205,0.024219250026453636
4962.91,0.3077377378940582,0.024168816988363737
4969.63,0.2948763966560364,0.023230942251632584
4976.37,0.2681460976600647,0.022200392058918744
4983.11,0.22857782244682312,0.021764935582356332
4989.86,0.17659665644168854,0.02085339354361678
4996.62,0.11379081010818481,0.01984962719102686
5003.39,0.04439142346382141,0.01858421646396562
5010.17,-0.024736016988754272,0.017253542849272552
5016.95,-0.0858277902007103,0.016301997213832218
5023.75,-0.13328824937343597,0.015557445618656088
5030.55,-0.1650010347366333,0.01635781121257224
5037.37,-0.18301504850387573,0.017580940934384216
5044.19,-0.19130130112171173,0.01740445818269725
5051.03,-0.19359847903251648,0.017465495577725126
5057.87,-0.19159063696861267,0.01755835912344304
5064.72,-0.18501202762126923,0.016827412265207408
5071.58,-0.17299747467041016,0.015313517526396538
5078.45,-0.15569144487380981,0.012752032737052122
5085.33,-0.13489824533462524,0.010744057858716157
5092.22,-0.11340198665857315,0.008287174160733659
5099.12,-0.09354761987924576,0.007782843645652163
5106.03,-0.07615897804498672,0.009322756303955614
5112.95,-0.06055999547243118,0.00920542324748374
5119.87,-0.04564904421567917,0.009109773987017494
5126.81,-0.031084652990102768,0.009086811177147132
5133.75,-0.017990712076425552,0.009262448067375846
5140.71,-0.00824451819062233,0.009250267206272006
5147.67,-0.003391181118786335,0.009249701376562527
5154.65,-0.0034583660308271646,0.009042450476057095
5161.63,-0.006844558287411928,0.009160920951286457
5168.62,-0.011025477200746536,0.008551281183015406
5175.62,-0.013702187687158585,0.008585416721522365
5182.64,-0.013595880940556526,0.008541189233141186
5189.66,-0.010557465255260468,0.00816758729451215
5196.69,-0.005173344165086746,0.008374390764779634
5203.73,0.0017123877769336104,0.00863104730108006
5210.78,0.009194736368954182,0.008617089925828847
5217.84,0.0163131020963192,0.00882488532103274
5224.91,0.0221838541328907,0.008675006949179755
5231.98,0.026441264897584915,0.008611880278429377
5239.07,0.029795197769999504,0.007313286980796265
5246.17,0.03407575935125351,0.006754336084300313
5253.28,0.041538022458553314,0.006943587235397439
5260.39,0.053523894399404526,0.007113252333672971
5267.52,0.06945327669382095,0.007289574336131717
5274.66,0.08680570870637894,0.008247188834644027
5281.8,0.10256453603506088,0.008477101750747456
5288.96,0.11528442054986954,0.009777756987003351
5296.12,0.12606418132781982,0.01076138361128443
5303.3,0.13792367279529572,0.012048360679591901
5310.48,0.15314526855945587,0.012173092820524931
5317.67,0.17066268622875214,0.012445241862436706
5324.88,0.18509042263031006,0.012355545816092562
5332.09,0.18857912719249725,0.012184749873913926
5339.32,0.1750163584947586,0.01262749355222447
5346.55,0.14384783804416656,0.012453855592783199
5353.79,0.10123942047357559,0.011929877749588962
5361.05,0.057465147227048874,0.012661851189407453
5368.31,0.022216862067580223,0.015202501086621576
5375.58,-0.0001837866730056703,0.019124049161585093
5382.86,-0.011633126065135002,0.020139069785611863
5390.16,-0.01741853728890419,0.020174904451859498
5397.46,-0.021210284903645515,0.020147555093117425
5404.77,-0.021418757736682892,0.020353526764622105
5412.09,-0.011348306201398373,0.020831045470546938
5419.42,0.016604889184236526,0.02077893316662743
5426.77,0.0654435083270073,0.020227100604977302
5434.12,0.12997202575206757,0.02054159278808576
5441.48,0.19826386868953705,0.02033497323406311
5448.85,0.25654998421669006,0.02138999913197531
5456.23,0.2951592206954956,0.02157522816504928
5463.62,0.31172919273376465,0.02213510153080621
5471.03,0.31007280945777893,0.02203758038451944
5478.44,0.29595232009887695,0.022124112220718008
5485.86,0.2730112671852112,0.022229687675771496
5493.29,0.2415766417980194,0.02236985691135417
5500.73,0.20102272927761078,0.022115946620477243
5508.18,0.15345273911952972,0.020674457996757517
5515.65,0.10547385364770889,0.01613825764742215
5523.12,0.06662559509277344,0.01422046154927549
5530.6,0.04439110681414604,0.014853159838807953
5538.09,0.04029567539691925,0.014642937666275314
5545.6,0.04919644817709923,0.015131249950634765
5553.11,0.06280091404914856,0.01911029783405623
5560.63,0.07511717081069946,0.025584294428402127
5568.17,0.08579697459936142,0.027209199884746342
5575.71,0.09867630153894424,0.02741634778876266
5583.26,0.11642122268676758,0.02967318278534077
5590.83,0.13489368557929993,0.031503920213974995
5598.4,0.14183996617794037,0.03139748694788187
5605.98,0.12219186127185822,0.03195091652369151
5613.58,0.06703532487154007,0.03205258222599268
5621.18,-0.018496118485927582,0.03201025368290268
5628.8,-0.11485877633094788,0.03224862526327499
5636.42,-0.19504180550575256,0.031913605330580616
5644.06,-0.23786534368991852,0.031908671898840474
5651.71,-0.2376420497894287,0.03201112148331096
5659.36,-0.20723044872283936,0.03245968375896444
5667.03,-0.17070817947387695,0.032585187464223876
5674.71,-0.15095117688179016,0.03244228817243342
5682.39,-0.15849348902702332,0.03321978846521316
5690.09,-0.1879478096961975,0.03337819479330914
5697.8,-0.22327038645744324,0.030921022282168618
5705.52,-0.24787960946559906,0.024304859939918953
5713.25,-0.2535138428211212,0.020539737256537047
5720.99,-0.24280871450901031,0.02100902161803203
5728.74,-0.22502291202545166,0.020545655943382674
5736.5,-0.20855452120304108,0.01916278160035276
5744.27,-0.19542451202869415,0.018683981091825133
5752.05,-0.18100589513778687,0.016017658493000176
5759.84,-0.1584717184305191,0.016067528263540964
5767.65,-0.1243264302611351,0.01600076541802859
5775.46,-0.0813051387667656,0.017236657536341512
5783.29,-0.036355212330818176,0.016739697846617795
5791.12,0.003615346737205982,0.016799317696741554
5798.97,0.036166902631521225,0.016391796415915247
5806.82,0.06350791454315186,0.016561164468425125
5814.69,0.0898486077785492,0.016563456184541824
5822.57,0.11692577600479126,0.016754421503157185
5830.45,0.14195536077022552,0.016368051989900212
5838.35,0.15926410257816315,0.01632829264729115
5846.26,0.1642923504114151,0.016474340512957875
5854.18,0.1576579511165619,0.01716315190480836
5862.11,0.1459318995475769,0.017700934699655564
5870.05,0.1385931670665741,0.017248761634994024
5878.01,0.14295896887779236,0.016271408198386312
5885.97,0.16020548343658447,0.016009128245290567
5893.94,0.18484118580818176,0.015834214267276384
5901.93,0.2078617960214615,0.015838123524573963
5909.92,0.22125329077243805,0.015547074623766182
5917.93,0.2216074913740158,0.01610135674026481
5925.95,0.21042610704898834,0.013271955787992217
5933.97,0.19205360114574432,0.012799473638479941
5942.01,0.1705056130886078,0.012761425085331056
5950.06,0.14769141376018524,0.012492235070153047
5958.12,0.12347055971622467,0.012742425768839665
5966.2,0.09717907011508942,0.01228114698052667
5974.28,0.06929904967546463,0.010569523207982613
5982.37,0.04169563204050064,0.009567583894410732
5990.48,0.01691764034330845,0.008878465989458255
5998.59,-0.002919973572716117,0.008813640622212298
6006.72,-0.017074231058359146,0.00875952152411518
6014.85,-0.025852054357528687,0.00879192447260178
6023.0,-0.03022998943924904,0.009068343047043261
6031.16,-0.03140900656580925,0.009049397760342704
6039.33,-0.03103283978998661,0.00854705287561963
6047.52,-0.031461045145988464,0.009646327616853361
6055.71,-0.03555114567279816,0.012307411609873491
6063.91,-0.045620255172252655,0.013600679812394025
6072.13,-0.062048494815826416,0.012796341506750998
6080.35,-0.08232109993696213,0.011986628168750174
6088.59,-0.10156716406345367,0.011806870288558249
6096.84,-0.11411206424236298,0.011592325413212812
6105.1,-0.11570098251104355,0.011630405288499297
6113.37,-0.10492172837257385,0.01177374442686652
6121.65,-0.0833255797624588,0.011668489171923384
6129.94,-0.054481711238622665,0.011943901417399969
6138.25,-0.02277730032801628,0.012362032957698721
6146.56,0.007089025806635618,0.012306813605331627
6154.89,0.030519213527441025,0.01289547198694187
6163.23,0.0430438332259655,0.012815116028173569
6171.58,0.04152547940611839,0.012833412552301748
6179.94,0.025799011811614037,0.012101070669998165
6188.31,-6.269235746003687e-05,0.01209844810200899
6196.69,-0.028196630999445915,0.012842194094618599
6205.09,-0.04963591694831848,0.013421781785842855
6213.5,-0.0581173300743103,0.011399221164969067
6221.91,-0.05331834778189659,0.009544010947737179
6230.34,-0.04113813862204552,0.00916463112892415
6238.78,-0.03074757196009159,0.00904873159545997
6247.23,-0.029886405915021896,0.009107756000030203
6255.7,-0.041026510298252106,0.00910946646016941
6264.17,-0.060571979731321335,0.009157902786555571
6272.66,-0.08155661076307297,0.00913692102144588
6281.16,-0.09777653962373734,0.009452487683988143
6289.67,-0.10698725283145905,0.009022818095987293
6298.19,-0.11106224358081818,0.008508774128149446
6306.72,-0.11344870924949646,0.00869320565763584
6315.26,-0.11598847806453705,0.007741777105933694
6323.82,-0.11751186102628708,0.008494937988215384
6332.38,-0.11519607156515121,0.00932370213854769
6340.96,-0.10761891305446625,0.013247939187686065
6349.55,-0.0970611497759819,0.015825755981409843
6358.15,-0.08910561352968216,0.015377721903272235
6366.77,-0.0894729271531105,0.01475191846210206
6375.39,-0.10012874007225037,0.01501853234141828
6384.03,-0.11733591556549072,0.015044249169695063
6392.68,-0.13317441940307617,0.01584528998882838
6401.34,-0.13978786766529083,0.018563015087571855
6410.01,-0.13365256786346436,0.018598646346159906
6418.7,-0.11713705211877823,0.018521491755181262
6427.39,-0.09650703519582748,0.01833177322564478
6436.1,-0.07754814624786377,0.01836099270498411
6444.82,-0.06207985058426857,0.018393100605635117
6453.55,-0.04722483083605766,0.01856294170981345
6462.29,-0.028017859905958176,0.018645228971807162
6471.04,-0.0013073210138827562,0.018668444683732046
6479.81,0.03176175430417061,0.01911896054734752
6488.59,0.06609807163476944,0.018221935109549035
6497.38,0.09568016231060028,0.017040359914664984
6506.18,0.11681108921766281,0.01593864448212
6515.0,0.1295606940984726,0.014438133743370283
6523.82,0.13659125566482544,0.014871735443641737
6532.66,0.14079703390598297,0.014306395130143717
6541.51,0.14339466392993927,0.013726189873866108
6550.37,0.1441306173801422,0.014291192928889787
6559.25,0.14300796389579773,0.014016096132189428
6568.13,0.14188018441200256,0.012418787524734696
6577.03,0.14422325789928436,0.013302900188774718
6585.94,0.15288661420345306,0.013139978357521677
6594.86,0.1673123836517334,0.013149414825040437
6603.8,0.18246151506900787,0.013573937548010976
6612.74,0.1905364692211151,0.013601766359907412
6621.7,0.18499882519245148,0.013048142034530367
6630.67,0.1641438901424408,0.012326020474113545
6639.65,0.1322653889656067,0.013195349109768556
6648.65,0.09741726517677307,0.012796300107568666
6657.66,0.06753341108560562,0.012820422915150379
6666.68,0.04703771322965622,0.012810295124326587
6675.71,0.03620995581150055,0.0119785678364422
6684.75,0.03306308761239052,0.014538198350451363
6693.81,0.03587150201201439,0.014492084326753482
6702.88,0.04418202117085457,0.014280009813035318
6711.96,0.05754927545785904,0.014612489785525288
6721.05,0.07330700755119324,0.015418137205948717
6730.15,0.08564742654561996,0.016016122604225785
6739.27,0.08748238533735275,0.015208771732784803
6748.4,0.07432225346565247,0.018283051588604847
6757.54,0.04772184416651726,0.01831467562533188
6766.7,0.015375012531876564,0.018475912100698256
6775.86,-0.012529989704489708,0.018064236604559115
6785.04,-0.029204266145825386,0.018019751644012327
6794.24,-0.03495318815112114,0.01817631688868606
6803.44,-0.03673950210213661,0.018769044671452382
6812.66,-0.043373603373765945,0.01832623503227689
6821.89,-0.059481430798769,0.018329409089985517
6831.13,-0.08243173360824585,0.01828622116460557
6840.38,-0.10428239405155182,0.01909075636909904
6849.65,-0.11739568412303925,0.021320755641832292
6858.93,-0.11960732936859131,0.01927146875817571
6868.22,-0.11537603288888931,0.019208966047339234
6877.52,-0.11177011579275131,0.019500990483230108
6886.84,-0.1123572364449501,0.020442500041088617
6896.17,-0.11369139701128006,0.02090424268012199
6905.51,-0.10745216906070709,0.022339572692013723
6914.87,-0.08727234601974487,0.0447836634544142
6924.24,-0.05548521503806114,0.044818026512623836
6933.62,-0.024297082796692848,0.04743647913502973
