wvl,flux,err
4001.77,-0.039762333035469055,0.2732376617764696
4007.19,-0.03584078699350357,0.4776596302061873
4012.62,-0.033593710511922836,0.38657164376437364
4018.06,-0.03363037109375,0.37923348928717215
4023.5,-0.036461733281612396,0.44962619314743385
4028.95,-0.04247748479247093,0.5169785432459554
4034.41,-0.051896221935749054,0.49691700849609793
4039.88,-0.06473995745182037,0.4873726348765348
4045.35,-0.08077674359083176,0.5296432332548797
4050.83,-0.09961304068565369,0.5076950935071669
4056.32,-0.12061929702758789,0.503785998025647
4061.81,-0.14293545484542847,0.49738802079047423
4067.32,-0.16567347943782806,0.47790929770090546
4072.83,-0.18768049776554108,0.5029378334264096
4078.34,-0.20784839987754822,0.5075024818956607
4083.87,-0.22514952719211578,0.5107541069053999
4089.4,-0.2385086864233017,0.5078185723848112
4094.94,-0.2470870316028595,0.4759913910007193
4100.49,-0.2502143979072571,0.5099688006059758
4106.04,-0.2474813163280487,0.477864405595256
4111.61,-0.23873862624168396,0.45096634665523827
4117.18,-0.22418321669101715,0.4490448372923472
4122.75,-0.20431263744831085,0.4323913372984765
4128.34,-0.1798143982887268,0.43901134169795397
4133.93,-0.15178726613521576,0.44121770610802336
4139.53,-0.12141554057598114,0.42535956450003276
4145.14,-0.09007158875465393,0.3560936687078613
4150.75,-0.05926194787025452,0.3777712347026407
4156.38,-0.030329003930091858,0.47952337884949475
4162.01,-0.004754559136927128,0.4775261331101578
4167.65,0.016288090497255325,0.5085413534812461
4173.29,0.031764350831508636,0.5088722734473382
4178.95,0.0409950353205204,0.48112699144894244
4184.61,0.04351450875401497,0.475682007275589
4190.28,0.03925180807709694,0.47156146678007443
4195.95,0.028472837060689926,0.4988915226686921
4201.64,0.011713262647390366,0.49951111129197134
4207.33,-0.01012744102627039,0.4582661507321815
4213.03,-0.03598305955529213,0.49939887546134143
4218.74,-0.06459621340036392,0.5158583971002259
4224.45,-0.09455862641334534,0.5128671097096493
4230.18,-0.12460008263587952,0.5149585188962057
4235.91,-0.15330669283866882,0.5444460577887938
4241.64,-0.17951303720474243,0.5470650679589324
4247.39,-0.20234693586826324,0.5490537161740283
4253.14,-0.22101061046123505,0.5500904946290606
4258.91,-0.2351532131433487,0.5476531692102607
4264.68,-0.24460390210151672,0.45481803078089245
4270.45,-0.24957841634750366,0.45567236805405215
4276.24,-0.2505757212638855,0.45003537882862543
4282.03,-0.24829988181591034,0.4598287858352583
4287.83,-0.24365673959255219,0.4574997689936702
4293.64,-0.23765814304351807,0.4528269365278105
4299.46,-0.2313532680273056,0.45279701227170316
4305.28,-0.2257576584815979,0.41168987147297914
4311.12,-0.22173352539539337,0.4491651005935553
4316.96,-0.21998590230941772,0.4503056634891371
4322.8,-0.22093957662582397,0.4075547440275411
4328.66,-0.22473503649234772,0.3807068814817233
4334.52,-0.23118916153907776,0.38091036735523764
4340.4,-0.23982499539852142,0.3776573751792364
4346.28,-0.24982327222824097,0.30744616983008477
4352.16,-0.2601262629032135,0.3274207735053398
4358.06,-0.26952028274536133,0.34982810987801577
4363.96,-0.27660226821899414,0.34496542006576925
4369.88,-0.27999112010002136,0.34041315632874497
4375.8,-0.27831825613975525,0.35242814352290264
4381.72,-0.27040940523147583,0.3595798239733835
4387.66,-0.2552874684333801,0.3216035329563845
4393.6,-0.23234544694423676,0.3103287330414449
4399.56,-0.2012474536895752,0.34532746898018774
4405.52,-0.1622295379638672,0.34872789530890896
4411.49,-0.11583240330219269,0.3774790776271776
4417.46,-0.06315095722675323,0.37885297464774365
4423.45,-0.005419312976300716,0.34627039205014976
4429.44,0.055441077798604965,0.34538493732033476
4435.44,0.11752267926931381,0.34628444447179907
4441.45,0.17866221070289612,0.34616279916868453
4447.46,0.23653888702392578,0.3479258481333921
4453.49,0.2891816794872284,0.3500881847235924
4459.52,0.3344060480594635,0.3562907029699331
4465.56,0.37058183550834656,0.3458249647369844
4471.61,0.39634785056114197,0.30853416903499487
4477.67,0.41078490018844604,0.30826528158219496
4483.74,0.4134705364704132,0.3069377889123169
4489.81,0.40452277660369873,0.2898124945461032
4495.89,0.38459351658821106,0.2822235677878349
4501.98,0.35480841994285583,0.28253837663161946
4508.08,0.3167378604412079,0.3023069620325756
4514.19,0.2723201513290405,0.2762489196648858
4520.31,0.22376497089862823,0.2801780526643901
4526.43,0.17352405190467834,0.240482771576518
4532.56,0.1239224299788475,0.24051951996283658
4538.7,0.07727590948343277,0.23360658771302753
4544.85,0.035701509565114975,0.23374996500508885
4551.01,0.0010114536853507161,0.23374470642030098
4557.17,-0.025333480909466743,0.23344249580368784
4563.35,-0.04247797280550003,0.23639374657478765
4569.53,-0.04990217834711075,0.23358285465511344
4575.72,-0.047718346118927,0.22288843640002212
4581.92,-0.03650112450122833,0.20219271769265848
4588.13,-0.01729126274585724,0.20840180894088034
4594.34,0.008426513522863388,0.20901682954207396
4600.57,0.03896591067314148,0.206834153960903
4606.8,0.0722632184624672,0.2035471106445409
4613.04,0.10628260672092438,0.23056025720563203
4619.29,0.13895341753959656,0.2321002748937291
4625.55,0.16832268238067627,0.1962423913345198
4631.81,0.19261902570724487,0.18435659056276693
4638.09,0.2105068415403366,0.17407847531996015
4644.37,0.22087757289409637,0.17219589353784034
4650.66,0.22315514087677002,0.17191346682788847
4656.96,0.2171718180179596,0.18037917497296385
4663.27,0.20320507884025574,0.21351302867836341
4669.59,0.18195116519927979,0.21316606759615864
4675.92,0.1544761061668396,0.21436984505559153
4682.25,0.12219860404729843,0.22795680195079415
4688.59,0.08666394650936127,0.2396824163063968
4694.94,0.04957565665245056,0.23841290408444976
4701.3,0.01266503892838955,0.2378589036686399
4707.67,-0.022404344752430916,0.25518528503175225
4714.05,-0.054125670343637466,0.25607259181763165
4720.44,-0.08122634887695312,0.25572846108493585
4726.83,-0.10269635170698166,0.2557188963133424
4733.24,-0.11797550320625305,0.23302839966863811
4739.65,-0.12673193216323853,0.2472940754758849
4746.07,-0.1290864199399948,0.24906373101394208
4752.5,-0.12546725571155548,0.24395774438190906
4758.94,-0.11660534143447876,0.24316493544077827
4765.38,-0.1034998670220375,0.25388985937636416
4771.84,-0.08727452158927917,0.25222692009451353
4778.3,-0.06923603266477585,0.24244010714563305
4784.78,-0.0506211556494236,0.22198567853321563
4791.26,-0.032723747193813324,0.2353502507009681
4797.75,-0.01662910357117653,0.23863962723244808
4804.25,-0.0032669270876795053,0.22075499888699748
4810.76,0.006665084045380354,0.2129608104724421
4817.28,0.012734146788716316,0.21283159952120193
4823.8,0.014785152859985828,0.21416952283687338
4830.34,0.012957560829818249,0.1907817246014353
4836.88,0.007637909147888422,0.1922721177294209
4843.43,-0.0005582732264883816,0.19487939727926534
4849.99,-0.010838876478374004,0.19589428116601168
4856.56,-0.022287642583251,0.21461906523297516
4863.14,-0.03392564505338669,0.19775429166639955
4869.73,-0.04477483779191971,0.2065379302640323
4876.33,-0.05391980707645416,0.21347040491821387
4882.94,-0.060564130544662476,0.21455332806900027
4889.55,-0.06407278776168823,0.202926083397962
4896.17,-0.0640353336930275,0.20257104148481972
4902.81,-0.060247115790843964,0.20257296036829825
4909.45,-0.052749790251255035,0.19598266996753483
4916.1,-0.041809383779764175,0.1763314293267776
4922.76,-0.027903851121664047,0.16816618649083537
4929.43,-0.011692957021296024,0.17111978572629155
4936.11,0.006021558772772551,0.17169697984638974
4942.79,0.024315595626831055,0.17184412368875193
4949.49,0.04230405017733574,0.17610629821846577
4956.2,0.05902863293886185,0.1744623245695579
4962.91,0.07359500229358673,0.1699668189998421
4969.63,0.0852658823132515,0.1780313060198943
4976.37,0.09343210607767105,0.17726051503974558
4983.11,0.09761472791433334,0.14940276017992335
4989.86,0.09757416695356369,0.15217600289929462
4996.62,0.09325359016656876,0.14870179882720191
5003.39,0.08479384332895279,0.15910501691596873
5010.17,0.07252080738544464,0.15667211258202604
5016.95,0.056946780532598495,0.15674411783399045
5023.75,0.03865347057580948,0.16148356278660225
5030.55,0.018412483856081963,0.1640751062441595
5037.37,-0.0030477307736873627,0.1612092367508455
5044.19,-0.02485794760286808,0.16605150979038028
5051.03,-0.04628575220704079,0.16804810922079355
5057.87,-0.06652061641216278,0.17378038091407674
5064.72,-0.0849253386259079,0.20017897798246082
5071.58,-0.10093119740486145,0.19981411916843636
5078.45,-0.11408694088459015,0.20257755005946612
5085.33,-0.12406879663467407,0.214219025227429
5092.22,-0.13068369030952454,0.21445357708284618
5099.12,-0.13386613130569458,0.20640870504351871
5106.03,-0.13366954028606415,0.20613106951934576
5112.95,-0.1302531659603119,0.204188544695578
5119.87,-0.12387498468160629,0.20045229880188584
5126.81,-0.11484029144048691,0.18900864703516526
5133.75,-0.10354239493608475,0.17960310140149616
5140.71,-0.09035704284906387,0.1908990003551066
5147.67,-0.0757402554154396,0.19292697998650918
5154.65,-0.06007448211312294,0.18981606808695248
5161.63,-0.04381332919001579,0.18780971690851547
5168.62,-0.027323612943291664,0.2043009626243286
5175.62,-0.010964012704789639,0.2039848337853151
5182.64,0.004963726736605167,0.20120277494999983
5189.66,0.020126132294535637,0.202391130209423
5196.69,0.034298766404390335,0.16902546831159168
5203.73,0.04727379232645035,0.16947515964335777
5210.78,0.058883730322122574,0.16018591230594714
5217.84,0.06900186836719513,0.1488615715669056
5224.91,0.07754290103912354,0.1525657789724409
5231.98,0.08445422351360321,0.15313000003707983
5239.07,0.08975864946842194,0.15323241832218631
5246.17,0.09349039196968079,0.15295005616676907
5253.28,0.09574234485626221,0.15481315902187906
5260.39,0.09665334224700928,0.15529073041511146
5267.52,0.09641432017087936,0.15146134172115894
5274.66,0.09525318443775177,0.13440717794584717
5281.8,0.09344355762004852,0.13195362685819942
5288.96,0.09128515422344208,0.1328803463841102
5296.12,0.08911076188087463,0.13287765780817615
5303.3,0.08725397288799286,0.10358324577336274
5310.48,0.08605743944644928,0.09519417960750334
5317.67,0.08583680540323257,0.09880442363034175
5324.88,0.0868774875998497,0.08039125864813046
5332.09,0.08941102772951126,0.08345738246783278
5339.32,0.09360748529434204,0.08227689239876351
5346.55,0.09954021871089935,0.08430698249157872
5353.79,0.10720191150903702,0.11327188125356188
5361.05,0.11649373918771744,0.11125392463307862
5368.31,0.1271766573190689,0.1078959600092001
5375.58,0.1389443576335907,0.113398971404373
5382.86,0.15138615667819977,0.11350810435192028
5390.16,0.16402800381183624,0.11139769026677772
5397.46,0.17628055810928345,0.11226210594375981
5404.77,0.187566339969635,0.1143697766038597
5412.09,0.19727595150470734,0.11533390341062791
5419.42,0.2048128992319107,0.11999568734139499
5426.77,0.2096284031867981,0.1176915595963976
5434.12,0.21121850609779358,0.12139586095174064
5441.48,0.20920103788375854,0.1219614025842784
5448.85,0.20329906046390533,0.12285584431781986
5456.23,0.1933676153421402,0.12392273469825227
5463.62,0.1794043332338333,0.12482715176683908
5471.03,0.16152934730052948,0.12409028957231386
5478.44,0.14007414877414703,0.12442236607383053
5485.86,0.11544210463762283,0.11532716160960697
5493.29,0.08817364275455475,0.0894506910873827
5500.73,0.058905862271785736,0.0910319513540975
5508.18,0.02834676019847393,0.09096180007552561
5515.65,-0.0027952047530561686,0.09390563908682854
5523.12,-0.03367416560649872,0.09900590432593183
5530.6,-0.06358711421489716,0.1012456029333492
5538.09,-0.09183641523122787,0.10211355859012083
5545.6,-0.11783060431480408,0.11252573365076034
5553.11,-0.14096301794052124,0.11427217151079254
5560.63,-0.16084584593772888,0.11139587553715148
5568.17,-0.17719286680221558,0.11141653580305101
5575.71,-0.18976923823356628,0.10690661677548441
5583.26,-0.1985340118408203,0.10831868839583716
5590.83,-0.2035376876592636,0.11175340987541484
5598.4,-0.20490510761737823,0.10614234963201255
5605.98,-0.2028738260269165,0.10547694974036696
5613.58,-0.19772765040397644,0.10591834559345768
5621.18,-0.1898125857114792,0.1117968877232157
5628.8,-0.17947468161582947,0.11088583420562168
5636.42,-0.1671094000339508,0.11098420188474874
5644.06,-0.1530522108078003,0.10733904021131105
5651.71,-0.137663796544075,0.1078290667171335
5659.36,-0.12128555029630661,0.1036900576684011
5667.03,-0.10416392236948013,0.10027872668952284
5674.71,-0.08657507598400116,0.10258770994150303
5682.39,-0.0687684491276741,0.1070459807920347
5690.09,-0.05089923366904259,0.09867041860679285
5697.8,-0.03317410126328468,0.09530799444315856
5705.52,-0.015766624361276627,0.09441182282393971
5713.25,0.0011525301961228251,0.09520308583727237
5720.99,0.017409514635801315,0.09621792707172956
5728.74,0.03282333165407181,0.09655821209627274
5736.5,0.04720458760857582,0.09249126855998499
5744.27,0.060357291251420975,0.09284298773383949
5752.05,0.07208384573459625,0.09225438197163202
5759.84,0.08219294995069504,0.08868952946436255
5767.65,0.09052054584026337,0.0828547355584934
5775.46,0.09689667820930481,0.0855845241616441
5783.29,0.1012347936630249,0.08565949798616633
5791.12,0.10346938669681549,0.08429916930983886
5798.97,0.10362078994512558,0.08427672588921395
5806.82,0.10176967084407806,0.0886241400119234
5814.69,0.09807346016168594,0.09086303904641985
5822.57,0.09276749193668365,0.08891433934107153
5830.45,0.08616620302200317,0.08189501145541354
5838.35,0.07862041145563126,0.07565822867620926
5846.26,0.07054860144853592,0.07690750232603176
5854.18,0.062388766556978226,0.07922097658064718
5862.11,0.05458279326558113,0.09224086162929794
5870.05,0.047552142292261124,0.09076833857668226
5878.01,0.04166559502482414,0.10645370131430884
5885.97,0.03724681958556175,0.10589622970236216
5893.94,0.03450363501906395,0.10832313077376286
5901.93,0.033544186502695084,0.108701472309691
5909.92,0.03436347097158432,0.10955529627891211
5917.93,0.036827363073825836,0.10928322477892989
5925.95,0.04068037122488022,0.10619463601872821
5933.97,0.04554641991853714,0.11229792918211554
5942.01,0.0509701706469059,0.10952325995443676
5950.06,0.0564061775803566,0.11062913751322986
5958.12,0.06126810610294342,0.11949356077599858
5966.2,0.06496049463748932,0.11638713748989964
5974.28,0.06689237803220749,0.11274321290098092
5982.37,0.06654460728168488,0.11214373712880303
5990.48,0.06347473710775375,0.1135180508151875
5998.59,0.05736271291971207,0.11273819417647778
6006.72,0.04800989106297493,0.11052442617345352
6014.85,0.035401079803705215,0.10053268051442059
6023.0,0.019634675234556198,0.10375847053483518
6031.16,0.0010060546919703484,0.08885845733538686
6039.33,-0.02005322091281414,0.09618021225550628
6047.52,-0.04301103949546814,0.09890075822445275
6055.71,-0.06715050339698792,0.09806452280549854
6063.91,-0.09176550805568695,0.09694529752680586
6072.13,-0.1161208376288414,0.09687638692099947
6080.35,-0.1393967568874359,0.09700054109840488
6088.59,-0.16093434393405914,0.08822899822980146
6096.84,-0.18006643652915955,0.08914211404540562
6105.1,-0.19626732170581818,0.09204855885741743
6113.37,-0.2091480791568756,0.07922803924015989
6121.65,-0.21847373247146606,0.07930100018388854
6129.94,-0.22417138516902924,0.07813240215757324
6138.25,-0.22633174061775208,0.08205250737471882
6146.56,-0.22518453001976013,0.0800801681900775
6154.89,-0.22110244631767273,0.08347775154590555
6163.23,-0.21456101536750793,0.08505692700900924
6171.58,-0.2061125487089157,0.08351867425530676
6179.94,-0.19634802639484406,0.0796542028837727
6188.31,-0.18585984408855438,0.07782128133732263
6196.69,-0.17520563304424286,0.06965827780183038
6205.09,-0.16486261785030365,0.06769129739030835
6213.5,-0.1552381068468094,0.07077420425885673
6221.91,-0.14661885797977448,0.07297600729025953
6230.34,-0.13912759721279144,0.07297030386236898
6238.78,-0.1327836811542511,0.07621959133461771
6247.23,-0.12746231257915497,0.0798073632349116
6255.7,-0.12291299551725388,0.08394752967707791
6264.17,-0.11880170553922653,0.09168640123055836
6272.66,-0.11469800770282745,0.09120395105681571
6281.16,-0.11014316976070404,0.10118556771142509
6289.67,-0.10466281324625015,0.10121016760481158
6298.19,-0.09780577570199966,0.09794665597879415
6306.72,-0.08917563408613205,0.10182755721537003
6315.26,-0.07845836877822876,0.11108944787532332
6323.82,-0.06542917340993881,0.10999609273605772
6332.38,-0.050025809556245804,0.11146668285998394
6340.96,-0.03225215896964073,0.11128069531430712
6349.55,-0.012287449091672897,0.11062065560047293
6358.15,0.009585938416421413,0.11181411404636253
6366.77,0.03301013633608818,0.11074368051916553
6375.39,0.05746589973568916,0.11026679024374098
6384.03,0.08248665183782578,0.10913314009162017
6392.68,0.10749617218971252,0.109440697091032
6401.34,0.13194866478443146,0.10728486649609531
6410.01,0.15532971918582916,0.10523011391543001
6418.7,0.1772066354751587,0.1057283750348508
6427.39,0.19714583456516266,0.09544274274873799
6436.1,0.21490508317947388,0.09467292827046478
6444.82,0.2302679568529129,0.0894711400994277
6453.55,0.24314355850219727,0.0893078754448383
6462.29,0.2535352110862732,0.09065856828230241
6471.04,0.2615284323692322,0.08626475755192221
6479.81,0.2672802805900574,0.07239821983790735
6488.59,0.2709743082523346,0.0764326321082073
6497.38,0.2728278934955597,0.07822661495177878
6506.18,0.2730575501918793,0.08697611928115079
6515.0,0.2718566060066223,0.08857476578162775
6523.82,0.2693815231323242,0.09245272686198938
6532.66,0.2657310962677002,0.10346293468647744
6541.51,0.26094990968704224,0.1055245605740422
6550.37,0.2550202012062073,0.11600961281730275
6559.25,0.24786052107810974,0.13333127486012578
6568.13,0.23936781287193298,0.1325602629850089
6577.03,0.22937849164009094,0.14675513405362486
6585.94,0.21774663031101227,0.14407315713134927
6594.86,0.2043328583240509,0.14554322811620418
6603.8,0.18901802599430084,0.1463692681592276
6612.74,0.1717912256717682,0.145299517180281
6621.7,0.15265005826950073,0.14633168671223967
6630.67,0.1317366063594818,0.15177770611675892
6639.65,0.10927403718233109,0.15226627777793444
6648.65,0.08555793762207031,0.1537845367126539
6657.66,0.061026763170957565,0.1537637448318725
6666.68,0.03617391362786293,0.15333349258783457
6675.71,0.011550558730959892,0.14953750928076298
6684.75,-0.01226020511239767,0.14714682945103924
6693.81,-0.03469765558838844,0.14310682693701357
6702.88,-0.05517616868019104,0.1348990432527299
6711.96,-0.07319772243499756,0.13498912244699457
6721.05,-0.08835350722074509,0.1296475660194781
6730.15,-0.10034842789173126,0.10961032333732298
6739.27,-0.1090288758277893,0.11092544927487276
6748.4,-0.11435773968696594,0.093930782185772
6757.54,-0.11646027117967606,0.09886277065297785
6766.7,-0.11560003459453583,0.09631534250349344
6775.86,-0.11216484010219574,0.09669170049405612
6785.04,-0.1066410169005394,0.09698634705080332
6794.24,-0.09958581626415253,0.09771565884018135
6803.44,-0.09161604940891266,0.08687008174340442
6812.66,-0.08332125097513199,0.08821216199950153
6821.89,-0.07528134435415268,0.09390204912143577
6831.13,-0.06800013035535812,0.09163493200146382
6840.38,-0.0618835911154747,0.09055358251161048
6849.65,-0.057212259620428085,0.08808023228046388
6858.93,-0.05414547026157379,0.09354056590972452
6868.22,-0.05269448459148407,0.09869816503831057
6877.52,-0.05273529514670372,0.09543553954637728
6886.84,-0.05402456596493721,0.099444433100265
6896.17,-0.05622057244181633,0.10195875370784148
6905.51,-0.05891260877251625,0.10206293637973529
6914.87,-0.061661094427108765,0.10565836338244351
6924.24,-0.06402625143527985,0.10463374818330176
6933.62,-0.06561565399169922,0.10982806217391278
6943.01,-0.06611752510070801,0.11206223048788297
6952.42,-0.06533025950193405,0.11233957731999432
6961.83,-0.06318690627813339,0.11442577760770112
6971.27,-0.05976023152470589,0.12346083213470993
6980.71,-0.05528626963496208,0.1199818078410733
6990.17,-0.050126880407333374,0.13187484745452316
6999.64,-0.04477712884545326,0.137222865766578
