wvl,flux,err
4001.77,-0.04081016778945923,0.24618983148600682
4007.19,-0.036800872534513474,0.1503049293282858
4012.62,-0.03355013206601143,0.1282796235195845
4018.06,-0.031324632465839386,0.13542920637711228
4023.5,-0.030357981100678444,0.12525939492515598
4028.95,-0.030834924429655075,0.12866071023521217
4034.41,-0.03288721665740013,0.11841374919990569
4039.88,-0.036582477390766144,0.11631841952715839
4045.35,-0.041903503239154816,0.11203452678943202
4050.83,-0.04877931624650955,0.10945730543106365
4056.32,-0.05705983191728592,0.09892054942808234
4061.81,-0.06650891155004501,0.09904336868051763
4067.32,-0.07688602060079575,0.0945434394633246
4072.83,-0.0878307893872261,0.09438237777806471
4078.34,-0.09898750483989716,0.09469922946626481
4083.87,-0.11002685874700546,0.08698520391356394
4089.4,-0.12054208666086197,0.09063861863564758
4094.94,-0.13020557165145874,0.09006238570746854
4100.49,-0.138706237077713,0.09337103325452048
4106.04,-0.1457744687795639,0.09103738324892292
4111.61,-0.15124236047267914,0.08194035124649077
4117.18,-0.15497353672981262,0.08249492080024179
4122.75,-0.15694190561771393,0.08376288394361131
4128.34,-0.15720371901988983,0.0873345501495585
4133.93,-0.15588803589344025,0.08266027537610734
4139.53,-0.15320415794849396,0.08155711808979917
4145.14,-0.14942505955696106,0.0772490134002097
4150.75,-0.14488430321216583,0.07743181754265574
4156.38,-0.13992851972579956,0.0774831234066339
4162.01,-0.13495393097400665,0.07056309939390455
4167.65,-0.1303306668996811,0.06720050222448644
4173.29,-0.12642352283000946,0.06554027246585901
4178.95,-0.12353800237178802,0.06460943613298116
4184.61,-0.1219504326581955,0.06445081626296122
4190.28,-0.12185227870941162,0.06433150837381459
4195.95,-0.12336014956235886,0.062322762022555704
4201.64,-0.12651358544826508,0.06102087498796233
4207.33,-0.1312558948993683,0.05572392833881103
4213.03,-0.1374594122171402,0.056444836737215495
4218.74,-0.14491881430149078,0.05624782472074483
4224.45,-0.15334975719451904,0.055737527655108164
4230.18,-0.16246090829372406,0.0554726054499277
4235.91,-0.17186929285526276,0.0495377509001631
4241.64,-0.18120673298835754,0.0497851153829902
4247.39,-0.19014325737953186,0.05632851764289414
4253.14,-0.19830676913261414,0.06021989265412245
4258.91,-0.20542488992214203,0.05995436110696589
4264.68,-0.21122275292873383,0.05842849781888955
4270.45,-0.21552380919456482,0.060715379553006786
4276.24,-0.21823468804359436,0.06100716310949025
4282.03,-0.2193080186843872,0.0607817294870854
4287.83,-0.21879053115844727,0.0610206941465219
4293.64,-0.21679076552391052,0.06091503315570129
4299.46,-0.21347729861736298,0.06291637285004043
4305.28,-0.2090737521648407,0.058558010957465746
4311.12,-0.20381459593772888,0.05556399618857948
4316.96,-0.1979784369468689,0.05449439092053873
4322.8,-0.19182643294334412,0.05657434512292683
4328.66,-0.18557453155517578,0.05650388342839931
4334.52,-0.17944209277629852,0.05568342584689599
4340.4,-0.17355401813983917,0.0556028588416631
4346.28,-0.16801272332668304,0.055482874726032645
4352.16,-0.16282682120800018,0.05324507938270629
4358.06,-0.15791362524032593,0.04634822743999848
4363.96,-0.15315237641334534,0.04190343655518363
4369.88,-0.14832064509391785,0.041405875671354994
4375.8,-0.14317092299461365,0.04106466311215998
4381.72,-0.1373974233865738,0.03714435850927284
4387.66,-0.13064758479595184,0.04914918926826143
4393.6,-0.1226009875535965,0.04862410684224262
4399.56,-0.11290299892425537,0.04925597669042612
4405.52,-0.10128727555274963,0.04809286366033477
4411.49,-0.0874973013997078,0.04655488616693279
4417.46,-0.07138743251562119,0.04682653343567781
4423.45,-0.05282019451260567,0.04713081588033706
4429.44,-0.03186221048235893,0.047302407695890725
4435.44,-0.008597368374466896,0.044337788099031473
4441.45,0.016759522259235382,0.04454241366915559
4447.46,0.043847810477018356,0.04443770619979819
4453.49,0.07234714925289154,0.042807076920774935
4459.52,0.10167834907770157,0.04156533913947635
4465.56,0.13133713603019714,0.04213337701634652
4471.61,0.1607305258512497,0.04207343221999326
4477.67,0.18924373388290405,0.04152259924876758
4483.74,0.21626314520835876,0.04135790894440705
4489.81,0.24115842580795288,0.041215638401008024
4495.89,0.26343637704849243,0.04158885422982435
4501.98,0.2826228439807892,0.02515531398401563
4508.08,0.2983265221118927,0.025211759308439666
4514.19,0.3102523684501648,0.026794157658845675
4520.31,0.3182104229927063,0.027987123222925143
4526.43,0.32211390137672424,0.02835756559976566
4532.56,0.32201096415519714,0.03049894501041495
4538.7,0.31803369522094727,0.028433474672224346
4544.85,0.31040874123573303,0.03240881180533787
4551.01,0.2994444966316223,0.033813359112083934
4557.17,0.28553828597068787,0.03801204267616839
4563.35,0.26907265186309814,0.04086018938982858
4569.53,0.2505494952201843,0.049502857220052036
4575.72,0.23041008412837982,0.05061876979366301
4581.92,0.20911268889904022,0.05103065679942904
4588.13,0.18709440529346466,0.05088069273872346
4594.34,0.1647937148809433,0.049663167766288624
4600.57,0.14249654114246368,0.049285627865480464
4606.8,0.12057998776435852,0.0516931417745308
4613.04,0.09925840049982071,0.05544469611425382
4619.29,0.07872769981622696,0.0568209219921842
4625.55,0.05913277715444565,0.056697101511386315
4631.81,0.04060308262705803,0.05664138824209859
4638.09,0.023140639066696167,0.060989477701803435
4644.37,0.006838459987193346,0.06440374067112646
4650.66,-0.008314503356814384,0.06394626202280683
4656.96,-0.022306716069579124,0.06354608479901827
4663.27,-0.03512461856007576,0.06224267201081556
4669.59,-0.0467451773583889,0.06177112965943818
4675.92,-0.057130567729473114,0.059892674910365415
4682.25,-0.06621105223894119,0.05900802331009655
4688.59,-0.07393234968185425,0.051909740162140505
4694.94,-0.08020703494548798,0.05516357420416404
4701.3,-0.08493830263614655,0.05460314908536646
4707.67,-0.0880274623632431,0.055088221143368414
4714.05,-0.08938324451446533,0.05720318977323468
4720.44,-0.0889321118593216,0.05800817712702814
4726.83,-0.08663254976272583,0.058505968922778415
4733.24,-0.08247373253107071,0.05929502629532749
4739.65,-0.07650677859783173,0.059372232266657166
4746.07,-0.06882348656654358,0.059505188884699356
4752.5,-0.05957814306020737,0.05962251799519268
4758.94,-0.04898540675640106,0.053759866483791156
4765.38,-0.037336546927690506,0.05130426220228871
4771.84,-0.024922966957092285,0.05149290118475314
4778.3,-0.012151977978646755,0.051440252118477865
4784.78,0.0006118575111031532,0.05207685359453007
4791.26,0.01290725078433752,0.05508435243052686
4797.75,0.024329898878932,0.05553498291483671
4804.25,0.034469857811927795,0.05828840669983745
4810.76,0.04294854775071144,0.05737718463561668
4817.28,0.049435295164585114,0.05456136256202052
4823.8,0.053655825555324554,0.05534148615968863
4830.34,0.0554344467818737,0.054981751349939656
4836.88,0.05465475469827652,0.05339762466373612
4843.43,0.05130627751350403,0.05500383907988687
4849.99,0.045463718473911285,0.05809266977277736
4856.56,0.03729085996747017,0.05447940007869209
4863.14,0.027033833786845207,0.05254928993992081
4869.73,0.015010545030236244,0.05431705586741492
4876.33,0.001596728339791298,0.05411745644701125
4882.94,-0.012790684588253498,0.05416261427094058
4889.55,-0.027689512819051743,0.05160423139482507
4896.17,-0.04267917200922966,0.07248619326983466
4902.81,-0.057356808334589005,0.0747743246436684
4909.45,-0.07128626108169556,0.07485619378926607
4916.1,-0.08414968103170395,0.07388748453345963
4922.76,-0.09567025303840637,0.07382631185019606
4929.43,-0.10564461350440979,0.07129879131274611
4936.11,-0.11394881457090378,0.07149605459398585
4942.79,-0.12053002417087555,0.07083209120371876
4949.49,-0.12544578313827515,0.0713631165131575
4956.2,-0.1287904530763626,0.07144809301855412
4962.91,-0.13072896003723145,0.07115807138268998
4969.63,-0.13148312270641327,0.07051415151848353
4976.37,-0.13129861652851105,0.06624445802208179
4983.11,-0.13043537735939026,0.06639389225313364
4989.86,-0.1291518211364746,0.06725754098662982
4996.62,-0.1276852935552597,0.06526322002508496
5003.39,-0.1262379139661789,0.06655201441884205
5010.17,-0.12496359646320343,0.06640693607520984
5016.95,-0.12395989894866943,0.06635226867804432
5023.75,-0.12325562536716461,0.042349276630250045
5030.55,-0.12281974405050278,0.03577133612982504
5037.37,-0.12255357205867767,0.036161411923045984
5044.19,-0.12230400741100311,0.03404372503884979
5051.03,-0.12186861783266068,0.034406329386821095
5057.87,-0.12101265043020248,0.033854162113894776
5064.72,-0.11948135495185852,0.03398679485350899
5071.58,-0.11701816320419312,0.033335824204457146
5078.45,-0.11338163167238235,0.03150373008767096
5085.33,-0.10836220532655716,0.0363719029324678
5092.22,-0.10179758071899414,0.036471836582782836
5099.12,-0.09358563274145126,0.0340845068978857
5106.03,-0.08369425684213638,0.03438887295365138
5112.95,-0.07216745615005493,0.03928256820500106
5119.87,-0.05914604663848877,0.03848863352521606
5126.81,-0.044791873544454575,0.038533795377475935
5133.75,-0.029410267248749733,0.03548336100421684
5140.71,-0.013282752595841885,0.03583348371582182
5147.67,0.00317721301689744,0.03556812533419817
5154.65,0.01962035894393921,0.03548112254084171
5161.63,0.03559505194425583,0.0364247424489828
5168.62,0.05073165521025658,0.03663733902223543
5175.62,0.06466671824455261,0.03638716777909496
5182.64,0.0771024152636528,0.039364713875007645
5189.66,0.0877491682767868,0.04127195819810742
5196.69,0.0964522510766983,0.04051331012391814
5203.73,0.1031232699751854,0.042169470624317175
5210.78,0.10776515305042267,0.04200896978669523
5217.84,0.11047276854515076,0.037301393458260564
5224.91,0.11142902076244354,0.036905533782228155
5231.98,0.11089727282524109,0.03713433400559566
5239.07,0.10920765995979309,0.039681561654110464
5246.17,0.10674059391021729,0.03375422935632127
5253.28,0.10391144454479218,0.03332366333713247
5260.39,0.101153165102005,0.03332680844368003
5267.52,0.09887953102588654,0.03296360496758031
5274.66,0.09748972207307816,0.032023987590040826
5281.8,0.09733323752880096,0.03332559765168188
5288.96,0.09869430959224701,0.033014872200863285
5296.12,0.10178132355213165,0.03280066762263753
5303.3,0.10672521591186523,0.037311883782478024
5310.48,0.11354787647724152,0.03721684273011155
5317.67,0.12219405174255371,0.032646295465444924
5324.88,0.13252894580364227,0.029782270134917167
5332.09,0.1442941576242447,0.029679649433143232
5339.32,0.15721607208251953,0.027625512441880513
5346.55,0.1708984076976776,0.027457663517389472
5353.79,0.18495409190654755,0.029168579783084507
5361.05,0.1989748328924179,0.029900765866116227
5368.31,0.21248771250247955,0.031216203315442306
5375.58,0.22509051859378815,0.027798428472632822
5382.86,0.23639029264450073,0.027842098358309045
5390.16,0.24605073034763336,0.028342306943136577
5397.46,0.2537488043308258,0.028291667777138103
5404.77,0.2592708468437195,0.029076968830040316
5412.09,0.26245811581611633,0.028942810975958588
5419.42,0.263224333524704,0.027662210658917077
5426.77,0.26155203580856323,0.027661961525259442
5434.12,0.257494181394577,0.027219982125266204
5441.48,0.2511627674102783,0.02037618985867079
5448.85,0.24271848797798157,0.020443325967941295
5456.23,0.23236075043678284,0.02055353272491728
5463.62,0.22031551599502563,0.021786319083427718
5471.03,0.20680491626262665,0.021752886522729994
5478.44,0.19210697710514069,0.023210066665897332
5485.86,0.17644084990024567,0.023311847307543054
5493.29,0.16002550721168518,0.022523491268322614
5500.73,0.14305691421031952,0.02226410116084952
5508.18,0.1257038116455078,0.02269268950269289
5515.65,0.1080823466181755,0.0228145454839244
5523.12,0.0903511643409729,0.02292408274323247
5530.6,0.07257329672574997,0.022671287072905017
5538.09,0.05481477454304695,0.022651006105132005
5545.6,0.037104006856679916,0.021149796640857307
5553.11,0.019533539190888405,0.024024605142241084
5560.63,0.0021255433093756437,0.024935366044835337
5568.17,-0.015089021064341068,0.02725610558388361
5575.71,-0.03199605271220207,0.026916368820812907
5583.26,-0.048531439155340195,0.02662477202630007
5590.83,-0.06460675597190857,0.026661406589015838
5598.4,-0.08004561066627502,0.027544902469930157
5605.98,-0.09471449255943298,0.027519867710272206
5613.58,-0.10845724493265152,0.027098427277897554
5621.18,-0.12104873359203339,0.024787516471011843
5628.8,-0.1323298066854477,0.026234483664359147
5636.42,-0.1420787274837494,0.025978009806853525
5644.06,-0.15014545619487762,0.02617207185162554
5651.71,-0.15636080503463745,0.025478565419943335
5659.36,-0.16059836745262146,0.025450844611857114
5667.03,-0.16279390454292297,0.02699883831418234
5674.71,-0.162912055850029,0.027506485196532444
5682.39,-0.16098488867282867,0.03160078784280323
5690.09,-0.15709981322288513,0.031584945617495294
5697.8,-0.151407852768898,0.030556580962349995
5705.52,-0.14411963522434235,0.03055281981078919
5713.25,-0.1355004906654358,0.02972285199472
5720.99,-0.1258629709482193,0.02962822421488554
5728.74,-0.11555693298578262,0.028694078321973047
5736.5,-0.10495750606060028,0.029687961528486267
5744.27,-0.09445159882307053,0.029687173048757395
5752.05,-0.08442344516515732,0.02973102988478971
5759.84,-0.07523982971906662,0.0294121824724314
5767.65,-0.06722553074359894,0.030543199082315276
5775.46,-0.06069288030266762,0.029084588146307808
5783.29,-0.055857136845588684,0.031073795350547946
5791.12,-0.05290009826421738,0.03149615693812284
5798.97,-0.051906295120716095,0.032491699615460654
5806.82,-0.05289820209145546,0.032638746194498434
5814.69,-0.05581582337617874,0.03325969667156948
5822.57,-0.06052517518401146,0.032555975314011984
5830.45,-0.0668133944272995,0.02775625245792693
5838.35,-0.0744287371635437,0.027727712490601342
5846.26,-0.08304880559444427,0.026708927197400353
5854.18,-0.09231960028409958,0.025458621927746367
5862.11,-0.10186377912759781,0.02544704995288794
5870.05,-0.11129556596279144,0.02669092980129398
5878.01,-0.1202472448348999,0.02639074821117252
5885.97,-0.12833772599697113,0.025842010492455658
5893.94,-0.13525648415088654,0.02685375963238904
5901.93,-0.14073505997657776,0.02761199303790787
5909.92,-0.1445394605398178,0.029981755616276834
5917.93,-0.14652732014656067,0.0293311311680304
5925.95,-0.14660748839378357,0.035295742362556504
5933.97,-0.1447700709104538,0.034243698317371715
5942.01,-0.14107204973697662,0.03285707034601155
5950.06,-0.1356406956911087,0.033121533073105884
5958.12,-0.12866580486297607,0.03311246215254231
5966.2,-0.12038129568099976,0.0317225417598461
5974.28,-0.11109539121389389,0.03171987379634546
5982.37,-0.10112186521291733,0.03166289712979189
5990.48,-0.09079183638095856,0.0316943000729308
5998.59,-0.08048351854085922,0.032197400506027325
6006.72,-0.07052132487297058,0.0318278410587483
6014.85,-0.061263736337423325,0.03363284660761639
6023.0,-0.05299383029341698,0.03461009817716283
6031.16,-0.045993492007255554,0.03452912848855955
6039.33,-0.0404861718416214,0.032319417399300256
6047.52,-0.03663741052150726,0.03135887418447017
6055.71,-0.034570589661598206,0.031899597055146445
6063.91,-0.0343291200697422,0.0304888719833336
6072.13,-0.03590216487646103,0.030492080523965723
6080.35,-0.039212968200445175,0.023360882876675766
6088.59,-0.04413241520524025,0.022676929741604252
6096.84,-0.050467558205127716,0.022121951824677633
6105.1,-0.057977329939603806,0.02259769400188323
6113.37,-0.06637773662805557,0.02267931883560894
6121.65,-0.07535005360841751,0.022676814157362356
6129.94,-0.08454999327659607,0.023410325311783303
6138.25,-0.09362829476594925,0.02332278034152598
6146.56,-0.10219656676054001,0.023577010841293364
6154.89,-0.10991368442773819,0.023141031351465648
6163.23,-0.11642052978277206,0.024189631691386344
6171.58,-0.12139321118593216,0.021144739364553185
6179.94,-0.12454122304916382,0.019217577095693293
6188.31,-0.1256157010793686,0.020054034015756443
6196.69,-0.12441650778055191,0.02036453206656169
6205.09,-0.12079377472400665,0.020297889555253606
6213.5,-0.11465935409069061,0.019494981479361805
6221.91,-0.10599879920482635,0.021160872176366762
6230.34,-0.09483292698860168,0.02250879658781774
6238.78,-0.08127015829086304,0.023335180726684508
6247.23,-0.06547187268733978,0.02317769903793053
6255.7,-0.047634564340114594,0.023419410070219724
6264.17,-0.028066355735063553,0.022106377792973742
6272.66,-0.007034992333501577,0.021421936809627437
6281.16,0.015091356821358204,0.022449139223137682
6289.67,0.037940431386232376,0.022266874689868852
6298.19,0.06112520024180412,0.022457860994912017
6306.72,0.08425469696521759,0.022826963344890764
6315.26,0.10694491118192673,0.025168660651824038
6323.82,0.12885497510433197,0.0271992959813408
6332.38,0.14959338307380676,0.028090779573469865
6340.96,0.16890661418437958,0.027667587223329758
6349.55,0.18650947511196136,0.027359333066954577
6358.15,0.20219239592552185,0.02721173797157855
6366.77,0.2158157229423523,0.02722190949074746
6375.39,0.22724613547325134,0.028891635771060374
6384.03,0.236469566822052,0.027707161132533038
6392.68,0.2434815615415573,0.02632439967259499
6401.34,0.24834395945072174,0.026210005529223875
6410.01,0.2511634826660156,0.02861889115823008
6418.7,0.2520855665206909,0.029000010667193873
6427.39,0.2512800693511963,0.02928406893564645
6436.1,0.24894189834594727,0.029692438146132323
6444.82,0.24527624249458313,0.028429292727315737
6453.55,0.24049142003059387,0.028674711664015543
6462.29,0.23478913307189941,0.029047731998923326
6471.04,0.22835679352283478,0.028329773159715115
6479.81,0.22135312855243683,0.024370470019866017
6488.59,0.21392641961574554,0.023438180207459407
6497.38,0.20618967711925507,0.02352218804727082
6506.18,0.19822600483894348,0.021275907285142524
6515.0,0.1900799572467804,0.025225535851413274
6523.82,0.18179664015769958,0.026103892325320444
6532.66,0.17336119711399078,0.02674452622199681
6541.51,0.16476869583129883,0.025686605473061903
6550.37,0.15599298477172852,0.026180619426719797
6559.25,0.1469925343990326,0.026267633086076478
6568.13,0.13775724172592163,0.026136888413145036
6577.03,0.12824411690235138,0.02338590066211797
6585.94,0.11845403164625168,0.022669568099588235
6594.86,0.10839549452066422,0.02251914425359555
6603.8,0.09808628261089325,0.021946818743521224
6612.74,0.08760085701942444,0.024208134241521843
6621.7,0.07698975503444672,0.024941894808327345
6630.67,0.06635855883359909,0.026733184717923922
6639.65,0.055817943066358566,0.028378091032200854
6648.65,0.04547882080078125,0.029233079214067818
6657.66,0.0354815274477005,0.02905139317156863
6666.68,0.025953494012355804,0.02915475219672003
6675.71,0.017014045268297195,0.02882866361599478
6684.75,0.008767493069171906,0.025610478677103112
6693.81,0.0012886113254353404,0.0261421697800597
6702.88,-0.005356014706194401,0.026773458512886046
6711.96,-0.011140218004584312,0.031702265832405145
6721.05,-0.016070539131760597,0.03578009914925251
6730.15,-0.02018652856349945,0.03577519050956297
6739.27,-0.02356279082596302,0.03577979870404017
6748.4,-0.026292920112609863,0.03569188799546163
6757.54,-0.028498509898781776,0.035692068523217574
6766.7,-0.030318906530737877,0.038294929954368215
6775.86,-0.031895074993371964,0.03959586015986704
6785.04,-0.03337547928094864,0.03840764703055249
6794.24,-0.03489518165588379,0.037990326276189625
6803.44,-0.03656850382685661,0.036607428732506615
6812.66,-0.038491141051054,0.034812949225873246
6821.89,-0.0407220721244812,0.035853574209148524
6831.13,-0.04328589886426926,0.03611513133605919
6840.38,-0.046168942004442215,0.037571033216712436
6849.65,-0.04932275786995888,0.037678488050367796
6858.93,-0.05265682935714722,0.038181725696117275
6868.22,-0.056052450090646744,0.03754161336175046
6877.52,-0.059366922825574875,0.04207673758148535
6886.84,-0.062445636838674545,0.03926286877880598
6896.17,-0.06512133032083511,0.038094658028018195
6905.51,-0.06723608821630478,0.03902188208794476
6914.87,-0.06865020841360092,0.042955864391351864
6924.24,-0.06924645602703094,0.045410147193274075
6933.62,-0.06894725561141968,0.04253316729445619
6943.01,-0.0677194744348526,0.043885377919145784
6952.42,-0.06557762622833252,0.0454224851987592
