wvl,flux,err
4001.77,0.41410526633262634,0.19889470528609132
4007.19,0.5501676201820374,0.09964995806602385
4012.62,0.6286380290985107,0.09171600977488849
4018.06,0.6452274322509766,0.07906178169098342
4023.5,0.6199859976768494,0.07102545305520647
4028.95,0.5825557112693787,0.06946959995649168
4034.41,0.5550814867019653,0.06500041183308773
4039.88,0.5425971746444702,0.06122309638703121
4045.35,0.5353960394859314,0.05777856513310218
4050.83,0.5196390748023987,0.05539798928949264
4056.32,0.4877939820289612,0.03742939413518979
4061.81,0.44224873185157776,0.03567605121456479
4067.32,0.39074063301086426,0.03344914275343073
4072.83,0.3397682309150696,0.03307183471847088
4078.34,0.2898622453212738,0.03051999144867548
4083.87,0.23707371950149536,0.03006686632587745
4089.4,0.17855539917945862,0.03051297974786141
4094.94,0.11581176519393921,0.028440820883762617
4100.49,0.05477645993232727,0.028832904438422423
4106.04,0.001903118914924562,0.02965056965774788
4111.61,-0.04015032574534416,0.02382809855701896
4117.18,-0.07272457331418991,0.022106840350294612
4122.75,-0.09911976009607315,0.02187718582458048
4128.34,-0.12118891626596451,0.022702203383715636
4133.93,-0.13817231357097626,0.020195067178907882
4139.53,-0.14911331236362457,0.020600730897775785
4145.14,-0.15560947358608246,0.020493784120569784
4150.75,-0.16243228316307068,0.020070256364658715
4156.38,-0.1746528446674347,0.015612120833413382
4162.01,-0.19319608807563782,0.015608104087959363
4167.65,-0.21294242143630981,0.016598544613889352
4173.29,-0.2252948135137558,0.015317664608027658
4178.95,-0.22429083287715912,0.01460580699130973
4184.61,-0.2115931361913681,0.015492740315373375
4190.28,-0.196787491440773,0.01657102430449558
4195.95,-0.19202519953250885,0.01663683005805066
4201.64,-0.204533189535141,0.016699372507527017
4207.33,-0.23220333456993103,0.016348348259777108
4213.03,-0.2651030719280243,0.015832026915406465
4218.74,-0.2917352616786957,0.016764398599941558
4224.45,-0.30553945899009705,0.01689820842572283
4230.18,-0.30747148394584656,0.017058437830912505
4235.91,-0.303070068359375,0.01701132888584489
4241.64,-0.29740065336227417,0.016927652362199393
4247.39,-0.29149967432022095,0.016680619466569912
4253.15,-0.28310707211494446,0.01710635583809172
4258.91,-0.27030542492866516,0.017577529046391774
4264.68,-0.2546955645084381,0.017552813926656335
4270.45,-0.2413923144340515,0.017462368627034888
4276.24,-0.23560282588005066,0.01588086343270177
4282.03,-0.23899999260902405,0.015916242283811638
4287.83,-0.2484368234872818,0.016097671576104526
4293.64,-0.2584232985973358,0.015121068392982745
4299.46,-0.26507818698883057,0.01409030766094202
4305.28,-0.26853686571121216,0.014019222458156845
4311.12,-0.2720731198787689,0.015973695924529803
4316.96,-0.27884456515312195,0.015354189566540832
4322.8,-0.2892664670944214,0.015202782867078124
4328.66,-0.3011370003223419,0.014803526360918872
4334.52,-0.3120313584804535,0.01423383410587852
4340.4,-0.3218880593776703,0.014309516636072077
4346.28,-0.33280715346336365,0.014711584651282614
4352.16,-0.34636715054512024,0.014408816217781301
4358.06,-0.3605037033557892,0.016423997385328137
4363.96,-0.36893749237060547,0.015956601778593423
4369.88,-0.36467212438583374,0.015775379511758263
4375.8,-0.3449974060058594,0.016077520660008646
4381.72,-0.31469470262527466,0.016245575873672268
4387.66,-0.2841998040676117,0.01623190534726727
4393.6,-0.2643339931964874,0.015563983102711476
4399.56,-0.26002734899520874,0.016751902540080497
4405.52,-0.2683579921722412,0.016746949398821074
4411.48,-0.28121593594551086,0.017916536958475147
4417.46,-0.2912500202655792,0.01788304322068687
4423.45,-0.2961563766002655,0.01598579648436132
4429.44,-0.29896280169487,0.01527170878949954
4435.44,-0.3043043315410614,0.015231302365342236
4441.45,-0.31396839022636414,0.01571218280226979
4447.46,-0.3251973092556,0.01573283216125425
4453.49,-0.3328406512737274,0.019148471300710505
4459.52,-0.33308565616607666,0.018890106534493228
4465.56,-0.32594186067581177,0.021477367066910967
4471.61,-0.31424131989479065,0.019292945393282798
4477.67,-0.3004480004310608,0.019257645704836235
4483.74,-0.28402581810951233,0.019348212604749532
4489.81,-0.26170700788497925,0.01984980524783764
4495.89,-0.23030169308185577,0.021031192682348605
4501.98,-0.18979477882385254,0.02086072954756635
4508.08,-0.1438489407300949,0.02107445345890836
4514.19,-0.0973004400730133,0.01905270200583907
4520.31,-0.052701741456985474,0.019008311759340275
4526.43,-0.008965411223471165,0.01907424994245171
4532.56,0.03689210116863251,0.019362378547250588
4538.7,0.08576101064682007,0.0200236113407185
4544.85,0.13421767950057983,0.024090533684918005
4551.01,0.17599958181381226,0.02418810507424964
4557.17,0.20647944509983063,0.024893829768566772
4563.35,0.22700415551662445,0.02555236833113078
4569.53,0.2446637898683548,0.024559310812332563
4575.72,0.2680565118789673,0.02433461374558701
4581.92,0.30084678530693054,0.023204186829490162
4588.13,0.33852681517601013,0.023109946930672056
4594.34,0.37095874547958374,0.023751284672360224
4600.57,0.3897986114025116,0.023546934500449757
4606.8,0.39502230286598206,0.02270332117832282
4613.04,0.3967253267765045,0.023328867952883955
4619.29,0.4094047248363495,0.02415487525110793
4625.55,0.4427257478237152,0.02417052768525543
4631.81,0.494428813457489,0.02404168946629363
4638.09,0.5507119297981262,0.024675604678466967
4644.37,0.593100368976593,0.024414411355919916
4650.66,0.6091705560684204,0.02361578298219385
4656.96,0.5988380312919617,0.02395566958564811
4663.27,0.5736827850341797,0.023061857728511236
4669.59,0.5495954155921936,0.023464288837787086
4675.92,0.5376275777816772,0.023285805653048705
4682.25,0.5385886430740356,0.0213389777790131
4688.59,0.5441758036613464,0.022194556869085235
4694.94,0.543309211730957,0.02153394226209363
4701.3,0.5290796756744385,0.021384181173238512
4707.67,0.5022678375244141,0.020427662338239165
4714.05,0.4697895646095276,0.021003756815043916
4720.44,0.43970125913619995,0.020012529416726346
4726.83,0.4162476658821106,0.01959827480157819
4733.24,0.39767083525657654,0.020461921058589096
4739.65,0.3781853914260864,0.020495566003480105
4746.07,0.3516271710395813,0.02058577990340934
4752.5,0.31509214639663696,0.02124789104804238
4758.94,0.27003297209739685,0.017894815113870765
4765.38,0.22072568535804749,0.017514807797515283
4771.84,0.17085197567939758,0.01769073400534939
4778.3,0.1214064359664917,0.017239382673524307
4784.78,0.06953439861536026,0.017376992227500082
4791.26,0.010974671691656113,0.015521944926817018
4797.75,-0.05732296034693718,0.015320100494556413
4804.25,-0.13424427807331085,0.015075750899967282
4810.76,-0.2140437811613083,0.016187284180434327
4817.28,-0.28835436701774597,0.019155685792424243
4823.8,-0.3496193289756775,0.02138934375878555
4830.34,-0.3945353031158447,0.021843182103742288
4836.88,-0.42412975430488586,0.021941952813041878
4843.43,-0.4424322545528412,0.02194259082910684
4849.99,-0.452784925699234,0.021947262254341314
4856.56,-0.4554871916770935,0.020557114162517317
4863.14,-0.4480038583278656,0.020198191026329988
4869.73,-0.4278218150138855,0.01979238053138865
4876.33,-0.3960218131542206,0.020188832355054104
4882.94,-0.3589039146900177,0.01841666603410117
4889.55,-0.3261483311653137,0.018864723345778427
4896.17,-0.3059574365615845,0.018751715212274957
4902.81,-0.30052679777145386,0.019475560145886504
4909.45,-0.3042503297328949,0.020307044753365873
4916.1,-0.30597952008247375,0.020350562355024752
4922.76,-0.29431653022766113,0.020955093582728047
4929.43,-0.26251235604286194,0.020036546034613176
4936.11,-0.2103452831506729,0.020972400393740483
4942.79,-0.1423618644475937,0.02349174924079003
4949.49,-0.06364185363054276,0.027080708819420717
4956.2,0.022600455209612846,0.027183871505487924
4962.91,0.11535944789648056,0.027384722813292496
4969.63,0.2137552797794342,0.029386210494574173
4976.37,0.31402599811553955,0.03367942905405983
4983.11,0.40821680426597595,0.04261317144310592
4989.86,0.48699164390563965,0.045171995698185
4996.62,0.5423883199691772,0.04648667019652381
5003.39,0.5704193115234375,0.045640745612640116
5010.17,0.5710390210151672,0.04551826144810678
5016.95,0.5460067987442017,0.044202308626859345
5023.75,0.49645963311195374,0.043708477738346574
5030.55,0.4227756857872009,0.04159662980570836
5037.37,0.32626205682754517,0.03952795154933544
5044.19,0.21292558312416077,0.0398153580064143
5051.03,0.09389957040548325,0.037625726951974754
5057.87,-0.015341676771640778,0.03505982063074505
5064.72,-0.10097505897283554,0.03102397383956314
5071.58,-0.15523794293403625,0.032363493413865546
5078.45,-0.17897053062915802,0.0329612952040323
5085.33,-0.17984101176261902,0.03305930141872129
5092.22,-0.1675587296485901,0.033040390779132865
5099.12,-0.14906011521816254,0.03287410317928038
5106.03,-0.12652932107448578,0.031292730269735364
5112.95,-0.0991065725684166,0.022680634496195885
5119.87,-0.06665746122598648,0.019016083284854896
5126.81,-0.0323367603123188,0.016425423663786902
5133.75,-0.0024866131134331226,0.016290913536694835
5140.71,0.01709943450987339,0.015241501191726037
5147.67,0.024733982980251312,0.016649062475995718
5154.65,0.024512244388461113,0.016631625207914585
5161.63,0.023690545931458473,0.016559214005235173
5168.62,0.027767669409513474,0.01621863433736565
5175.62,0.03627007454633713,0.015496183028579648
5182.64,0.042409032583236694,0.015372940552351184
5189.66,0.03711875528097153,0.015391053554255005
5196.69,0.015294825658202171,0.01558949325689822
5203.73,-0.020030997693538666,0.014746135341454763
5210.78,-0.058286067098379135,0.015639589185487593
5217.84,-0.08664640039205551,0.016721837038317488
5224.91,-0.09676425158977509,0.017303669489175454
5231.98,-0.08870093524456024,0.01728728355940761
5239.07,-0.06959325075149536,0.017113640126689995
5246.17,-0.04818421229720116,0.01704516818977737
5253.28,-0.02900334820151329,0.017075046825702263
5260.39,-0.01010234747081995,0.0171007648453014
5267.52,0.014369707554578781,0.01653543438165531
5274.66,0.04852977767586708,0.016183852527118816
5281.8,0.09058894217014313,0.013378561131576032
5288.96,0.13325148820877075,0.010499306432266566
5296.12,0.16784639656543732,0.011913023218881871
5303.3,0.19034714996814728,0.01359912845388089
5310.48,0.20359130203723907,0.012430534844219032
5317.67,0.2152990847826004,0.012616961589832625
5324.88,0.2323482185602188,0.012434498318807765
5332.09,0.2558490037918091,0.014103832788986376
5339.32,0.2805328667163849,0.015304553434283491
5346.55,0.29837530851364136,0.014488434039501695
5353.79,0.3043828308582306,0.013393100480539486
5361.05,0.2996516823768616,0.012634552149111302
5368.31,0.29003846645355225,0.012691104662463518
5375.58,0.2813706696033478,0.01253494635674857
5382.86,0.27495530247688293,0.012727789827770694
5390.16,0.2668267786502838,0.012408448625395101
5397.46,0.2513231039047241,0.012942916188273538
5404.77,0.22616881132125854,0.012508939957553927
5412.09,0.19525741040706635,0.012445529934440099
5419.42,0.16680850088596344,0.012725079874363573
5426.77,0.1481388956308365,0.012136807145862993
5434.12,0.14097729325294495,0.01218907905799256
5441.48,0.14040513336658478,0.014137664170520786
5448.85,0.1388089805841446,0.013512543335319368
5456.23,0.1316094994544983,0.013547864557450611
5463.62,0.12088000774383545,0.013887384169629886
5471.03,0.1142234355211258,0.01356734759869871
5478.44,0.11974229663610458,0.013039080900842043
5485.86,0.1403864622116089,0.013377621529614301
5493.29,0.1717032492160797,0.014850664173100435
5500.73,0.2041088193655014,0.01472941528687192
5508.18,0.22801506519317627,0.015290435314487523
5515.65,0.23837944865226746,0.015242517649647614
5523.12,0.23593853414058685,0.01491009737684811
5530.6,0.22523394227027893,0.015697502338369664
5538.09,0.2109878808259964,0.015244314243241566
5545.6,0.19572070240974426,0.015361382641074235
5553.11,0.1797245591878891,0.014869891077104324
5560.63,0.1624210625886917,0.016103600794645286
5568.17,0.14382822811603546,0.01633355063978944
5575.71,0.12485367804765701,0.01611765927859386
5583.26,0.1063418909907341,0.013695352202804153
5590.83,0.08836005628108978,0.013644402899897809
5598.4,0.07030927389860153,0.013783198136158343
5605.98,0.05145688354969025,0.014663769250082892
5613.58,0.03141627088189125,0.015476782772557462
5621.18,0.009729336947202682,0.015446341860958621
5628.8,-0.015348071232438087,0.01350717061648598
5636.42,-0.047014616429805756,0.014282416966060113
5644.06,-0.08902528882026672,0.013865298085288568
5651.71,-0.14305561780929565,0.013875733037228067
5659.36,-0.20666596293449402,0.013870612170232756
5667.03,-0.27350273728370667,0.014169073568773954
5674.71,-0.3351849317550659,0.014657554377049534
5682.39,-0.3850906491279602,0.015541146960234889
5690.09,-0.4211311340332031,0.01571097322212293
5697.8,-0.4453488886356354,0.016536424901778875
5705.52,-0.4619640111923218,0.017514775718217482
5713.25,-0.4744378626346588,0.018103236718228444
5720.99,-0.4839315116405487,0.020450645739265957
5728.74,-0.48974600434303284,0.023587738901188985
5736.5,-0.49081769585609436,0.026566158970226565
5744.27,-0.4866735339164734,0.025956213224421727
5752.05,-0.4769911766052246,0.02379695044759633
5759.84,-0.4603545665740967,0.022342476705707267
5767.65,-0.4336295425891876,0.0241545982501732
5775.46,-0.39312776923179626,0.023380733705501647
5783.29,-0.3365940451622009,0.02314707928084404
5791.12,-0.2653333246707916,0.022364346986084114
5798.97,-0.18355849385261536,0.02001965148384379
5806.82,-0.09693680703639984,0.02062223413227056
5814.69,-0.00935293734073639,0.021198162424119343
5822.57,0.07730380445718765,0.021100695402106635
5830.45,0.16215670108795166,0.021799084363428423
5838.35,0.24330462515354156,0.024086752523921024
5846.26,0.31593698263168335,0.024780236046553664
5854.18,0.3740985095500946,0.025615593846446925
5862.11,0.4138322174549103,0.026349755326095646
5870.05,0.4359986186027527,0.02804335490978541
5878.01,0.44634443521499634,0.02674112765021439
5885.97,0.4523068070411682,0.025479362921116782
5893.94,0.4587300419807434,0.02530491338708407
5901.93,0.46515321731567383,0.025932673501036334
5909.92,0.4667532444000244,0.02458439727458359
5917.93,0.4582187235355377,0.01923161969808696
5925.95,0.43766337633132935,0.01735349589736139
5933.97,0.40801116824150085,0.015953034325747673
5942.01,0.37475520372390747,0.015580841587998075
5950.06,0.34243243932724,0.01457557413123976
5958.12,0.31200069189071655,0.01473708240189287
5966.2,0.2813030183315277,0.014824591212802845
5974.28,0.2480372041463852,0.008081218353437876
5982.37,0.21226291358470917,0.007775083528872299
5990.48,0.17687582969665527,0.007629302914429602
5998.59,0.1454799771308899,0.008918266692942038
6006.72,0.1190696656703949,0.008946079072149463
6014.85,0.09514222294092178,0.009214852412091024
6023.0,0.06917770951986313,0.009998484545833129
6031.16,0.03840877115726471,0.010426227972077366
6039.33,0.004355552606284618,0.010279933248288284
6047.52,-0.02752774767577648,0.01020716135113424
6055.71,-0.05094984546303749,0.00999179275494193
6063.91,-0.06296878308057785,0.009803167512039917
6072.13,-0.06566281616687775,0.010694241987280452
6080.35,-0.06468939036130905,0.010806469717366356
6088.59,-0.06571750342845917,0.011222355390108091
6096.84,-0.0712490975856781,0.010984885854553084
6105.1,-0.08003167062997818,0.011129313815938865
6113.37,-0.08912862837314606,0.012196734297604574
6121.65,-0.096776582300663,0.013448858129659527
6129.94,-0.10370339453220367,0.013482464072875658
6138.25,-0.11193757504224777,0.012806417048506305
6146.56,-0.12212192267179489,0.012734029821576216
6154.89,-0.13173064589500427,0.012927424792295465
6163.23,-0.1356508433818817,0.012953696805294573
6171.58,-0.1292441189289093,0.013255158072452363
6179.94,-0.11177052557468414,0.013008465298528109
6188.31,-0.08785759657621384,0.012946439105480047
6196.69,-0.06584712117910385,0.012642679122702309
6205.09,-0.053849611431360245,0.012540959650810531
6213.5,-0.05588095635175705,0.012515094298932685
6221.91,-0.07001535594463348,0.012513427596324272
6230.34,-0.0898464098572731,0.012187132823990098
6238.78,-0.1079612672328949,0.012340522492769377
6247.23,-0.11965925991535187,0.011655759658988754
6255.7,-0.12488803267478943,0.011604848513380192
6264.17,-0.12760108709335327,0.011019947327618124
6272.66,-0.13323958218097687,0.01024012903771589
6281.16,-0.14562398195266724,0.008229763116773106
6289.67,-0.1649649441242218,0.008248785395393839
6298.19,-0.1878020167350769,0.00823557043027466
6306.72,-0.20877595245838165,0.00768620992837835
6315.26,-0.22324088215827942,0.007600982504823875
6323.82,-0.22937649488449097,0.008253307907788839
6332.38,-0.2286980003118515,0.009069905999172578
6340.96,-0.22487768530845642,0.009060105184179516
6349.55,-0.22139295935630798,0.0093834731771118
6358.15,-0.2194921225309372,0.008986867235835241
6366.77,-0.2175980657339096,0.008934247069601916
6375.39,-0.21254490315914154,0.009826470799470858
6384.03,-0.2018672078847885,0.009782150829526975
6392.68,-0.1857953667640686,0.010286930008985739
6401.34,-0.1676521897315979,0.010335284108107875
6410.01,-0.1524374634027481,0.011751180640610571
6418.7,-0.14446721971035004,0.011895924569076139
6427.39,-0.1455848515033722,0.011953565016913168
6436.1,-0.15483014285564423,0.011067246506353002
6444.82,-0.16981953382492065,0.0112653016058086
6453.55,-0.18862661719322205,0.012915735138651767
6462.29,-0.210928812623024,0.013706025523580264
6471.04,-0.237599179148674,0.015513912422439399
6479.81,-0.26906588673591614,0.015604554767255885
6488.59,-0.30338993668556213,0.01532828595734993
6497.38,-0.33563652634620667,0.014823508841748344
6506.18,-0.35890722274780273,0.014837025469633948
6515.0,-0.36685648560523987,0.015645370209284665
6523.82,-0.3564694821834564,0.016200089309209423
6532.66,-0.32993409037590027,0.017055190166632626
6541.51,-0.29434865713119507,0.016473893778350908
6550.37,-0.2592547535896301,0.01786579186240475
6559.25,-0.2327270656824112,0.019508973219405538
6568.13,-0.2178470641374588,0.01875762833423561
6577.03,-0.21077880263328552,0.016965735565281984
6585.94,-0.2022969126701355,0.016343161089609995
6594.86,-0.1817995309829712,0.01558933499754864
6603.8,-0.14242976903915405,0.014768312811195098
6612.74,-0.08486272394657135,0.014663995918884419
6621.7,-0.017189564183354378,0.014656513597114958
6630.67,0.048300400376319885,0.015014843424117097
6639.65,0.10081709176301956,0.01480595744203229
6648.65,0.13559968769550323,0.014830389359168084
6657.66,0.15501128137111664,0.015293096458526667
6666.68,0.1663089543581009,0.016972677578380415
6675.71,0.1771283894777298,0.017132783836718152
6684.75,0.19168603420257568,0.017524264480149182
6693.81,0.2095308005809784,0.017356962576431868
6702.88,0.2268332988023758,0.018745182926387275
6711.96,0.23896335065364838,0.018586385940350388
6721.05,0.24250328540802002,0.01708962835500147
6730.15,0.2359894961118698,0.01287533078146953
6739.27,0.21976953744888306,0.013583692141315471
6748.4,0.19585245847702026,0.014528099928512075
6757.54,0.1678488850593567,0.014483094480367843
6766.7,0.14038637280464172,0.015570718445705895
6775.86,0.1175236701965332,0.01653647952713601
6785.04,0.1000579446554184,0.01594014131442549
6794.24,0.08410570025444031,0.014519197482308295
6803.44,0.06215733289718628,0.015223503450070727
6812.66,0.02705960161983967,0.015079479133290668
6821.89,-0.022893747314810753,0.015368575231390172
6831.13,-0.08163558691740036,0.015388304827390656
6840.38,-0.13773506879806519,0.01722096265347956
6849.65,-0.18069380521774292,0.022176531578112113
6858.93,-0.2067810595035553,0.02320699629113742
6868.22,-0.22059984505176544,0.023480562678305096
6877.52,-0.23029440641403198,0.02244242905496556
6886.84,-0.23993611335754395,0.02262796916302514
6896.17,-0.24482746422290802,0.022744677548568418
6905.51,-0.2340770810842514,0.02353095563504324
6914.87,-0.19938738644123077,0.03560949280391563
6924.24,-0.14404581487178802,0.03644841880764921
6933.62,-0.08463488519191742,0.03393910419244598
6943.01,-0.04250935837626457,0.03612269716847555
6952.42,-0.029423318803310394,0.03848729897413156
6961.83,-0.03687727451324463,0.04084345317848327
