wvl,flux,err
4001.77,0.008516679517924786,0.06348331698942057
4007.19,0.012638814747333527,0.03425552588858235
4012.62,0.015267805196344852,0.042871640376905835
4018.06,0.016493208706378937,0.0484976782113806
4023.5,0.016467437148094177,0.059936070451423934
4028.95,0.015383808873593807,0.06931604200721102
4034.41,0.013456247746944427,0.10668539244693512
4039.88,0.010900694876909256,0.11059618840088753
4045.35,0.007923656143248081,0.11536626190368027
4050.83,0.00468866340816021,0.1166470343782951
4056.32,0.0013210383476689458,0.1201718009834408
4061.81,-0.0020973978098481894,0.12038527630668795
4067.32,-0.0055550080724060535,0.1400210665126592
4072.83,-0.00906295794993639,0.13896646902310936
4078.34,-0.012684302404522896,0.14248952034591403
4083.87,-0.01652420498430729,0.14365486790281343
4089.4,-0.02067468874156475,0.14319769056445333
4094.94,-0.025248458608984947,0.1406426827100729
4100.49,-0.030336882919073105,0.1419480539121377
4106.04,-0.03599373623728752,0.13978679104529937
4111.61,-0.042268406599760056,0.14307575980916595
4117.18,-0.04912644624710083,0.14246183343991972
4122.75,-0.056512199342250824,0.13274282960500092
4128.34,-0.06436259299516678,0.1301929898829465
4133.93,-0.07253221422433853,0.13027634203004523
4139.53,-0.08090077340602875,0.1341575591082796
4145.14,-0.08933227509260178,0.13013912873171382
4150.75,-0.09768874943256378,0.13170566313364843
4156.38,-0.10590459406375885,0.13686350374936765
4162.01,-0.11389476805925369,0.13412349727432082
4167.65,-0.12166716903448105,0.13412055083949817
4173.29,-0.129254549741745,0.11373596079813343
4178.95,-0.13678207993507385,0.12733698113431874
4184.61,-0.1443665772676468,0.12632996699687446
4190.28,-0.15219880640506744,0.12503378386513764
4195.95,-0.1604590266942978,0.1326766603853829
4201.64,-0.16936852037906647,0.13428787822208074
4207.33,-0.1790660172700882,0.13682111016048926
4213.03,-0.18968971073627472,0.14021792388438525
4218.74,-0.20129811763763428,0.13676616177406603
4224.45,-0.21384596824645996,0.1305811138382729
4230.18,-0.2272590845823288,0.1330187953454508
4235.91,-0.24127674102783203,0.13312815776725498
4241.64,-0.2555846571922302,0.12797677624200698
4247.39,-0.26983341574668884,0.12535130196337346
4253.14,-0.2835035026073456,0.12425442325021016
4258.91,-0.296123206615448,0.11644244619278961
4264.68,-0.30710461735725403,0.11012337564454217
4270.45,-0.31592196226119995,0.11048517299071228
4276.24,-0.32211413979530334,0.11198615738970621
4282.03,-0.3252280354499817,0.11201407814698257
4287.83,-0.32494616508483887,0.10243505861158597
4293.64,-0.32105034589767456,0.09962385646713269
4299.46,-0.31345129013061523,0.09962746904862578
4305.28,-0.30221423506736755,0.08935440735946762
4311.12,-0.2874855399131775,0.08548925565849406
4316.96,-0.2696104645729065,0.07916379706874659
4322.8,-0.2490091770887375,0.09392508166559764
4328.66,-0.22609850764274597,0.09884331586567437
4334.52,-0.20148497819900513,0.10384789646831595
4340.4,-0.17563922703266144,0.09788694382199759
4346.28,-0.14918503165245056,0.09758199779758465
4352.16,-0.12261992692947388,0.0975354728717906
4358.06,-0.09627939015626907,0.1033641446997685
4363.96,-0.07059117406606674,0.10436935444076453
4369.88,-0.04570664092898369,0.10893726719741582
4375.8,-0.02184768207371235,0.1096093740804343
4381.72,0.0009528162772767246,0.11164591361275163
4387.66,0.022821471095085144,0.10950262516773596
4393.6,0.0437973290681839,0.10694650855442007
4399.56,0.06410982459783554,0.10656273530157943
4405.52,0.08386240154504776,0.10750095801651476
4411.49,0.10325087606906891,0.10744731330870087
4417.46,0.12236543744802475,0.10752390097205348
4423.45,0.14133180677890778,0.10699377637261125
4429.44,0.16006973385810852,0.1103915138301594
4435.44,0.17850717902183533,0.09512390222207037
4441.45,0.19645057618618011,0.09140533516118712
4447.46,0.21359430253505707,0.08851975830434443
4453.49,0.229650616645813,0.08837207587815026
4459.52,0.24416986107826233,0.0874556451323232
4465.56,0.2567635774612427,0.08929932468869513
4471.61,0.26702070236206055,0.07925503801500863
4477.67,0.2745661735534668,0.07762717820698291
4483.74,0.2790895104408264,0.07285927950036801
4489.81,0.2803681492805481,0.07236638558204274
4495.89,0.27830445766448975,0.08309335594775634
4501.98,0.272909939289093,0.08564618110399363
4508.08,0.26432228088378906,0.09009261785464631
4514.19,0.2528012990951538,0.08890913810303859
4520.31,0.23871660232543945,0.09368833658592102
4526.43,0.22255432605743408,0.09441937306715503
4532.56,0.20481692254543304,0.09545249642774449
4538.7,0.1860595941543579,0.09465840204184538
4544.85,0.16683949530124664,0.09337132321837077
4551.01,0.14768412709236145,0.0996081156666899
4557.17,0.12909255921840668,0.09891839738743018
4563.35,0.11138872802257538,0.09575522928126678
4569.53,0.09491537511348724,0.09776398316608248
4575.72,0.07981491088867188,0.09759814582502754
4581.92,0.06614706665277481,0.09622920742618511
4588.13,0.053864870220422745,0.09599319929555658
4594.34,0.042846061289310455,0.09582849130349855
4600.57,0.03284063562750816,0.09600020688023761
4606.8,0.023622510954737663,0.09573466664004389
4613.04,0.014894523657858372,0.08578496953385707
4619.29,0.0063855391927063465,0.08156751263702679
4625.55,-0.0021406288724392653,0.07715149942853594
4631.81,-0.010848280042409897,0.07614354416058235
4638.09,-0.01986733451485634,0.06892284423600355
4644.37,-0.02918536216020584,0.0694719948081944
4650.66,-0.03874232992529869,0.07088199793985964
4656.96,-0.048378780484199524,0.07128724527847384
4663.27,-0.05786112695932388,0.06673996127622202
4669.59,-0.06689928472042084,0.05980279410868097
4675.92,-0.07516928017139435,0.06685956522044714
4682.25,-0.0823276937007904,0.06539043108772727
4688.59,-0.08807691186666489,0.062172485498958846
4694.94,-0.09214960038661957,0.06416815079611063
4701.3,-0.09434594959020615,0.06394076341872261
4707.67,-0.09455219656229019,0.06695261953443861
4714.05,-0.09275326877832413,0.06751366149882396
4720.44,-0.08903861790895462,0.0659830886763397
4726.83,-0.08360948413610458,0.06466129147616062
4733.24,-0.07673884183168411,0.061153599285569224
4739.65,-0.06881297379732132,0.06536762413055083
4746.07,-0.06025027856230736,0.06417928437491241
4752.5,-0.051514632999897,0.06271307971509324
4758.94,-0.043081559240818024,0.0629188507244635
4765.38,-0.03542455658316612,0.06113129560819707
4771.84,-0.028941670432686806,0.05903964493546715
4778.3,-0.02401847206056118,0.06979889764980388
4784.78,-0.020926304161548615,0.06941773860568608
4791.26,-0.01987960934638977,0.07127586991898224
4797.75,-0.020980698987841606,0.06412439010507703
4804.25,-0.024248071014881134,0.06533997871407664
4810.76,-0.029614437371492386,0.06579215024735591
4817.28,-0.036936938762664795,0.06855371796830087
4823.8,-0.04599696770310402,0.06886420322639362
4830.34,-0.056569453328847885,0.06617349726668587
4836.88,-0.06834550201892853,0.06708234173567289
4843.43,-0.0810479074716568,0.06976133958798648
4849.99,-0.09438744187355042,0.06979945040197295
4856.56,-0.10808862745761871,0.07302061702224114
4863.14,-0.1218983381986618,0.06960319548014232
4869.73,-0.1355908066034317,0.069693603759216
4876.33,-0.14896897971630096,0.07100330814983263
4882.94,-0.16186273097991943,0.06978701315181092
4889.55,-0.17410580813884735,0.06904672246721268
4896.17,-0.18558768928050995,0.06884055552038629
4902.81,-0.19620291888713837,0.05648926342615266
4909.45,-0.20579920709133148,0.05672616215092994
4916.1,-0.21427246928215027,0.05398225869220606
4922.76,-0.2214951366186142,0.05392993853514076
4929.43,-0.22733259201049805,0.05341939989566
4936.11,-0.23164501786231995,0.053025330204982055
4942.79,-0.23428797721862793,0.0490202448780029
4949.49,-0.23513798415660858,0.04985676880558028
4956.2,-0.2340696007013321,0.04984791686070323
4962.91,-0.2309933453798294,0.04781507897712087
4969.63,-0.2258514016866684,0.046218115411276094
4976.37,-0.21861733496189117,0.047178825730578355
4983.11,-0.20934419333934784,0.04386174396443852
4989.86,-0.1981135606765747,0.04531014934596343
4996.62,-0.18507020175457,0.04299002438227899
5003.39,-0.17041179537773132,0.04248944649270349
5010.17,-0.15438266098499298,0.04336448038443171
5016.95,-0.1372893899679184,0.04553148879849642
5023.75,-0.1193886324763298,0.045167726845082336
5030.55,-0.1010473221540451,0.04511835036941186
5037.37,-0.08252296596765518,0.04512628048378082
5044.19,-0.06416001915931702,0.047765511159993924
5051.03,-0.04616119712591171,0.049308877283967954
5057.87,-0.028790708631277084,0.04865370815496137
5064.72,-0.012178484350442886,0.049724837442035826
5071.58,0.0035770172253251076,0.04722151189809131
5078.45,0.018436327576637268,0.04567772539590344
5085.33,0.032415520399808884,0.04908483754565043
5092.22,0.045579034835100174,0.04916395918203097
5099.12,0.05802937224507332,0.04774849739333396
5106.03,0.06989456713199615,0.04694508949862305
5112.95,0.08131439238786697,0.046112161051341985
5119.87,0.09241047501564026,0.04431878427183933
5126.81,0.1033378541469574,0.04332716309890992
5133.75,0.11416130512952805,0.043414734444504055
5140.71,0.12497515231370926,0.04247649107349749
5147.67,0.1357729285955429,0.042371168593486185
5154.65,0.1465713232755661,0.042291703983121494
5161.63,0.1572888344526291,0.04315671730242972
5168.62,0.16786062717437744,0.04340461009646777
5175.62,0.1781853586435318,0.04011041874883801
5182.64,0.18816572427749634,0.03793635580141468
5189.66,0.19766241312026978,0.03955571305920282
5196.69,0.20659275352954865,0.037693880962752585
5203.73,0.21488218009471893,0.03791142625108506
5210.78,0.22248682379722595,0.03756146241056372
5217.84,0.22939848899841309,0.03458355946509616
5224.91,0.23564612865447998,0.0360488480290281
5231.98,0.24128572642803192,0.034388254071739455
5239.07,0.24642734229564667,0.03409875003466917
5246.17,0.25117623805999756,0.03519102724097573
5253.28,0.2556562125682831,0.036879621158532445
5260.39,0.25998228788375854,0.03652888618308962
5267.52,0.26427218317985535,0.03590538230576355
5274.66,0.26859748363494873,0.03569744224390142
5281.8,0.27299174666404724,0.033650217032049456
5288.96,0.2774611711502075,0.034672663107395994
5296.12,0.28193747997283936,0.03304260958237345
5303.3,0.28632673621177673,0.031277169014630846
5310.48,0.2904634177684784,0.03145914632291026
5317.67,0.2941613793373108,0.03156100251579922
5324.88,0.29720339179039,0.030407522991750983
5332.09,0.2993425726890564,0.029859295444654033
5339.32,0.30034708976745605,0.02920238839429218
5346.55,0.29998794198036194,0.02796844627349713
5353.79,0.2980724573135376,0.027984192279506718
5361.05,0.29444143176078796,0.026671667020245298
5368.31,0.2890000343322754,0.029278381379792707
5375.58,0.2817020118236542,0.02925120207633272
5382.86,0.2725655734539032,0.025845964212613735
5390.16,0.2616548538208008,0.01987735392368559
5397.46,0.2491329163312912,0.018058501798587135
5404.77,0.23517055809497833,0.018079695128296085
5412.09,0.21998834609985352,0.018094222863900323
5419.42,0.203831285238266,0.019325800287633085
5426.77,0.1869322508573532,0.01911265580070272
5434.12,0.16959001123905182,0.02675533477126267
5441.48,0.15202121436595917,0.02826436697638654
5448.85,0.13443966209888458,0.02820943407887264
5456.23,0.11702693998813629,0.028055301672286873
5463.62,0.09992799162864685,0.028112028845655106
5471.03,0.08322761952877045,0.028201046345736287
5478.44,0.06704343855381012,0.0283408532400028
5485.86,0.05139349400997162,0.028273288217562736
5493.29,0.036295365542173386,0.02821394863888856
5500.73,0.021751414984464645,0.02748803888395694
5508.18,0.007757629733532667,0.026022370761377957
5515.65,-0.0057059102691709995,0.026271833927360475
5523.12,-0.01859496720135212,0.026113296084463628
5530.6,-0.030906205996870995,0.026070585060074335
5538.09,-0.04259994253516197,0.027235555744829398
5545.6,-0.053633395582437515,0.027692701002416945
5553.11,-0.06390339881181717,0.027563933867007045
5560.63,-0.07334242761135101,0.026995826798614855
5568.17,-0.08187519758939743,0.026399016248769766
5575.71,-0.08939606696367264,0.017763188658267523
5583.26,-0.09584958851337433,0.016448266832616167
5590.83,-0.10119716078042984,0.018151095843740937
5598.4,-0.10540729761123657,0.018166404005072165
5605.98,-0.10850820690393448,0.017879314101240096
5613.58,-0.11056104302406311,0.017577641010296553
5621.18,-0.11165694892406464,0.024132260015897584
5628.8,-0.11193515360355377,0.023937130725802017
5636.42,-0.1115606427192688,0.024198203079790787
5644.06,-0.11072447150945663,0.025955738301540306
5651.71,-0.10963233560323715,0.025543883126647772
5659.36,-0.10849559307098389,0.02624994098628935
5667.03,-0.107513427734375,0.026271789876839344
5674.71,-0.10687132179737091,0.026146798459786954
5682.39,-0.10672551393508911,0.024798695958196646
5690.09,-0.10719513893127441,0.026117393757764472
5697.8,-0.10836030542850494,0.02685873338413481
5705.52,-0.11025664210319519,0.026696724876398698
5713.25,-0.11287640035152435,0.026709379442365847
5720.99,-0.11617150902748108,0.02748457976133427
5728.74,-0.12005890160799026,0.03085683223072052
5736.5,-0.12442782521247864,0.0306314852893322
5744.27,-0.12914831936359406,0.031069665426392667
5752.05,-0.1340801864862442,0.031008099481143653
5759.84,-0.13908173143863678,0.03153986625830151
5767.65,-0.1440240442752838,0.02737731413754158
5775.46,-0.14877185225486755,0.027316385756368772
5783.29,-0.15323251485824585,0.027470626366556086
5791.12,-0.1573096364736557,0.025867074851369146
5798.97,-0.16095037758350372,0.02591658661514654
5806.82,-0.16410121321678162,0.02495085916010048
5814.69,-0.16674445569515228,0.02494905986029219
5822.57,-0.16886313259601593,0.025114438832123803
5830.45,-0.17045313119888306,0.025055116031963982
5838.35,-0.17152367532253265,0.023277065591840996
5846.26,-0.1720803678035736,0.02277313749772761
5854.18,-0.1721334457397461,0.022906135582281554
5862.11,-0.17169471085071564,0.02292020594613071
5870.05,-0.1707785576581955,0.021688531878947894
5878.01,-0.16940262913703918,0.017627527875579672
5885.97,-0.16759756207466125,0.015391223744880552
5893.94,-0.16540218889713287,0.014746681968405947
5901.93,-0.1628694236278534,0.01538973363980825
5909.92,-0.16008073091506958,0.014380153706713803
5917.93,-0.1571262925863266,0.012363226642368044
5925.95,-0.1541275829076767,0.013308361396624445
5933.97,-0.15122564136981964,0.013087718693542973
5942.01,-0.14856471121311188,0.013148321183996333
5950.06,-0.1463075429201126,0.013021366615537586
5958.12,-0.14461101591587067,0.012553005015537196
5966.2,-0.143617644906044,0.013264643522325944
5974.28,-0.14344948530197144,0.012982163002340294
5982.37,-0.144185870885849,0.01289883393081577
5990.48,-0.1458621472120285,0.012915071278552983
5998.59,-0.14845125377178192,0.012611163815897615
6006.72,-0.15187083184719086,0.012569210120069152
6014.85,-0.15595977008342743,0.014099688494035638
6023.0,-0.16050906479358673,0.016471715721330972
6031.16,-0.16523770987987518,0.01581384077711472
6039.33,-0.16982120275497437,0.01622947717933319
6047.52,-0.17390689253807068,0.01618201517949439
6055.71,-0.17711086571216583,0.01622512178578607
6063.91,-0.17907051742076874,0.01749620377543402
6072.13,-0.17944374680519104,0.01729139091246083
6080.35,-0.17793072760105133,0.016544009931534334
6088.59,-0.17429721355438232,0.01717566657614387
6096.84,-0.16838935017585754,0.0170224016480837
6105.1,-0.16014420986175537,0.01720825917195239
6113.37,-0.14959467947483063,0.018954450655667216
6121.65,-0.13686886429786682,0.021237821749561004
6129.94,-0.12218350172042847,0.02239849868465681
6138.25,-0.10581211000680923,0.02258306897736108
6146.56,-0.0881451740860939,0.023131474587969558
6154.89,-0.06953375041484833,0.023659512780298302
6163.23,-0.05040545389056206,0.023346408363910717
6171.58,-0.031159570440649986,0.022959624392654244
6179.94,-0.012163684703409672,0.021933331948361754
6188.31,0.006266729906201363,0.022316831493119194
6196.69,0.023884646594524384,0.021800717261266492
6205.09,0.0405423529446125,0.02226045499203559
6213.5,0.05613439902663231,0.024264331871627805
6221.91,0.0706435814499855,0.023782396968790795
6230.34,0.08418140560388565,0.023681787894738068
6238.78,0.09686750918626785,0.02369532773067593
6247.23,0.10888455808162689,0.023443134390496966
6255.7,0.12045226991176605,0.02379395609649054
6264.17,0.13174980878829956,0.02415233005269892
6272.66,0.14298978447914124,0.02389890427966667
6281.16,0.15430234372615814,0.02171130494077119
6289.67,0.1657724231481552,0.020581560133904143
6298.19,0.1774144172668457,0.02263601324438719
6306.72,0.18916645646095276,0.022701864237782643
6315.26,0.20089110732078552,0.02137797624073623
6323.82,0.21239596605300903,0.02148206734898689
6332.38,0.22339247167110443,0.022830417563700932
6340.96,0.23360778391361237,0.023400688451981497
6349.55,0.24271319806575775,0.023080986985689132
6358.15,0.2504010498523712,0.02316206769815832
6366.77,0.25640180706977844,0.024780585322072772
6375.39,0.26047584414482117,0.022444994230963883
6384.03,0.2624819874763489,0.024099309365310646
6392.68,0.26234492659568787,0.02676513567943946
6401.34,0.260088175535202,0.02769910548375278
6410.01,0.25582772493362427,0.02756341769975168
6418.7,0.2497587651014328,0.027211881090979922
6427.39,0.24216946959495544,0.0273953040127837
6436.1,0.2333766371011734,0.02679744722577139
6444.82,0.22375427186489105,0.02807637964724208
6453.55,0.21367914974689484,0.028213380025578775
6462.29,0.2035130113363266,0.027396804028696847
6471.04,0.19357913732528687,0.02713419653696921
6479.81,0.18413132429122925,0.02677754597279688
6488.59,0.17537228763103485,0.026767751129751608
6497.38,0.16740882396697998,0.02521112738963665
6506.18,0.1602603942155838,0.025722843652328107
6515.0,0.15385547280311584,0.02555437529942582
6523.82,0.1480712592601776,0.026846469598601666
6532.66,0.14269742369651794,0.023839443909617456
6541.51,0.13750602304935455,0.02419130787094617
6550.37,0.13224582374095917,0.02355380676114097
6559.25,0.12666669487953186,0.021049144513347398
6568.13,0.12056631594896317,0.01987541742006608
6577.03,0.11376575380563736,0.019939508116920194
6585.94,0.10616936534643173,0.020203971437929395
6594.86,0.09774870425462723,0.01996604830522464
6603.8,0.08854155987501144,0.023006930073549533
6612.74,0.07868893444538116,0.021776213915908945
6621.7,0.06835436075925827,0.022060921287231756
6630.67,0.057781659066677094,0.02326567272696269
6639.65,0.047233548015356064,0.023305729377902092
6648.65,0.03696884959936142,0.023233863956697916
6657.66,0.0272554662078619,0.023304891804262724
6666.68,0.018313171342015266,0.025826798784490342
6675.71,0.010307009331882,0.02628984507936815
6684.75,0.0033334579784423113,0.026151292519504522
6693.81,-0.0025942528154700994,0.025367578068437136
6702.88,-0.007526062894612551,0.02537147127148295
6711.96,-0.011594662442803383,0.024727293072664927
6721.05,-0.014995451085269451,0.02477040578326153
6730.15,-0.01796993426978588,0.024682903872526075
6739.27,-0.02078809216618538,0.024757533384461988
6748.4,-0.02371617779135704,0.025093187910301205
6757.54,-0.027002541348338127,0.024505717120373523
6766.7,-0.030855536460876465,0.024986678000778025
6775.86,-0.03540802747011185,0.021058189709282995
6785.04,-0.04073159024119377,0.02055332084583891
6794.24,-0.046803876757621765,0.02165139659247463
6803.44,-0.05349837616086006,0.019826284499504004
6812.66,-0.06063046306371689,0.019012031402980932
6821.89,-0.06792224943637848,0.020363045181344925
6831.13,-0.075047567486763,0.02068343372430076
6840.38,-0.08164771646261215,0.019815610560844563
6849.65,-0.0873628631234169,0.01806275222357506
6858.93,-0.09183718264102936,0.0189217393693506
6868.22,-0.09476704150438309,0.02044595753897752
6877.52,-0.09591592103242874,0.023221315756457212
6886.84,-0.09513156116008759,0.023242135658664252
6896.17,-0.09235646575689316,0.02424819933276965
6905.51,-0.08763937652111053,0.024267023638623514
6914.87,-0.0811234638094902,0.02573629805343249
6924.24,-0.07305524498224258,0.025901270016625184
6933.62,-0.0637563019990921,0.024737386623568842
6943.01,-0.05360613018274307,0.025621431516712777
6952.42,-0.04300718009471893,0.025937107240489043
6961.83,-0.032404445111751556,0.018511649327275143
