wvl,flux,err
4001.77,0.1479012817144394,0.14109872807527418
4007.19,0.2218068242073059,0.11682199882581187
4012.62,0.29605814814567566,0.10012902843646303
4018.06,0.3512669801712036,0.08801857608771341
4023.5,0.3744924068450928,0.07906470946791777
4028.95,0.36420193314552307,0.07260011864165926
4034.41,0.3295757472515106,0.06846930822959413
4039.88,0.2851247489452362,0.06788569185727092
4045.35,0.2432963103055954,0.06391337420600837
4050.83,0.20864124596118927,0.06058876278156506
4056.32,0.17713570594787598,0.0532425398081104
4061.81,0.1400783509016037,0.05436326528721297
4067.32,0.09014390408992767,0.04157201579559832
4072.83,0.027185069397091866,0.040730613051555446
4078.34,-0.041021399199962616,0.036186008882461144
4083.87,-0.10215192288160324,0.036071906440460474
4089.4,-0.14454548060894012,0.03372999452787705
4094.94,-0.16333751380443573,0.03215984398937581
4100.49,-0.1621662974357605,0.03286865603043069
4106.04,-0.15129582583904266,0.03547351194496663
4111.61,-0.14264391362667084,0.04061196506116647
4117.18,-0.1447329819202423,0.039212092677350256
4122.75,-0.15957102179527283,0.039027928916416876
4128.34,-0.18306782841682434,0.037840580622181604
4133.93,-0.2076425403356552,0.033769770353902474
4139.53,-0.22618591785430908,0.03391234679251016
4145.14,-0.23477232456207275,0.033210179517938934
4150.75,-0.2337275594472885,0.033246488478521914
4156.38,-0.22691217064857483,0.03382741686692126
4162.01,-0.21995039284229279,0.03396009535356582
4167.65,-0.21824313700199127,0.032524994516917614
4173.29,-0.22530964016914368,0.03395524762322194
4178.95,-0.24171048402786255,0.034713217730199926
4184.61,-0.2645505964756012,0.03523885117420464
4190.28,-0.28818967938423157,0.034769178407145766
4195.95,-0.30586326122283936,0.03611469823731691
4201.64,-0.31246086955070496,0.03607861391563783
4207.33,-0.30687469244003296,0.035802899162007434
4213.03,-0.2933485805988312,0.03394770999681144
4218.74,-0.2801092267036438,0.03043004920417096
4224.45,-0.2757870554924011,0.03271482321305089
4230.18,-0.2848525047302246,0.03233768423195982
4235.91,-0.3046302795410156,0.032328554932148264
4241.64,-0.3256581723690033,0.03432501697781585
4247.39,-0.3360004425048828,0.034628387069286976
4253.14,-0.32717272639274597,0.03484645370936656
4258.91,-0.2993137538433075,0.03501605622662553
4264.68,-0.2622133195400238,0.03729224925311994
4270.45,-0.23125120997428894,0.037258506076542214
4276.24,-0.22008100152015686,0.03904219654979197
4282.03,-0.23424994945526123,0.038682896896506835
4287.83,-0.2681916356086731,0.043513600006696636
4293.64,-0.30828264355659485,0.043573428387585246
4299.46,-0.3397611677646637,0.045579710531070045
4305.28,-0.354091614484787,0.04594442382222908
4311.12,-0.352939248085022,0.04626862901064101
4316.96,-0.34624436497688293,0.04711068428838831
4322.8,-0.3462141156196594,0.04548880937107067
4328.66,-0.3601857125759125,0.04444272072469943
4334.52,-0.3866192698478699,0.04257751216195655
4340.4,-0.41622892022132874,0.042607349004283264
4346.28,-0.43697986006736755,0.044018659248340614
4352.16,-0.44068384170532227,0.04109716060284734
4358.06,-0.4266079068183899,0.040557145365300355
4363.96,-0.4007931053638458,0.04168955942639687
4369.88,-0.3718034625053406,0.041792156195745535
4375.8,-0.34601661562919617,0.03984077310802461
4381.72,-0.3247162401676178,0.039732892573733206
4387.66,-0.30511391162872314,0.038053590606645336
4393.6,-0.2840923070907593,0.03697538285393751
4399.56,-0.26131340861320496,0.028956050603300542
4405.52,-0.24035996198654175,0.029523515727416814
4411.49,-0.22617214918136597,0.026931228541551874
4417.46,-0.2213478982448578,0.023243994886421888
4423.45,-0.2234005630016327,0.023154150792519822
4429.44,-0.22542181611061096,0.022270280081122813
4435.44,-0.2197723388671875,0.02400760369058442
4441.45,-0.20274023711681366,0.023949531501762423
4447.46,-0.17712505161762238,0.025365956893946082
4453.49,-0.15065625309944153,0.025314071271960174
4459.52,-0.13144780695438385,0.024302150804533372
4465.56,-0.12229545414447784,0.024587628663175043
4471.61,-0.11818874627351761,0.024539683101699114
4477.67,-0.10818604379892349,0.020603747647867494
4483.74,-0.08110073953866959,0.02116322800788566
4489.81,-0.031917646527290344,0.021930908292844338
4495.89,0.03502950072288513,0.02253819452240261
4501.98,0.10758846253156662,0.02058153368992738
4508.08,0.1714833527803421,0.02342106504095542
4514.19,0.21692107617855072,0.022451365032738597
4520.31,0.24251435697078705,0.021626019744458984
4526.43,0.2545279562473297,0.021871719579502628
4532.56,0.2623193860054016,0.02336570068354225
4538.7,0.2726348638534546,0.023483815524573987
4544.85,0.28647586703300476,0.02446576462871609
4551.01,0.2998795509338379,0.024480134628284942
4557.17,0.3078038692474365,0.02410931806940011
4563.35,0.30846551060676575,0.02217898025798709
4569.53,0.30504047870635986,0.022377358499707352
4575.72,0.303925096988678,0.022601066688073115
4581.92,0.31050848960876465,0.022535940390724065
4588.13,0.3253648281097412,0.022914145728021768
4594.34,0.3433021903038025,0.024250515432942335
4600.57,0.3561844229698181,0.02416453399593684
4606.8,0.3575124442577362,0.02389207623728604
4613.04,0.34655624628067017,0.023629025482992134
4619.29,0.3289749324321747,0.024237854033622275
4625.55,0.31388401985168457,0.02305571970564955
4631.81,0.30888840556144714,0.023243819870278435
4638.09,0.31589531898498535,0.023107277503564925
4644.37,0.3302207887172699,0.023568215728130816
4650.66,0.3431761860847473,0.020819619537247664
4656.96,0.3466390073299408,0.02087918944708071
4663.27,0.33693739771842957,0.02074382528920118
4669.59,0.31601664423942566,0.020651807874628763
4675.92,0.2895205616950989,0.019640252601854775
4682.25,0.2632482945919037,0.0183638783341233
4688.59,0.23999324440956116,0.018372469332884347
4694.94,0.21887362003326416,0.018047529371947084
4701.3,0.19684171676635742,0.017814281909365175
4707.67,0.17130258679389954,0.017692944677632404
4714.05,0.14203211665153503,0.017405123269981285
4720.44,0.11125415563583374,0.017191682676593458
4726.83,0.08206788450479507,0.017001555524226608
4733.24,0.05616772919893265,0.016834665008624045
4739.65,0.03302972763776779,0.016338092610242976
4746.07,0.01011175662279129,0.016607982365963253
4752.5,-0.015253699384629726,0.016562981080143282
4758.94,-0.04417302459478378,0.015182374631434155
4765.38,-0.07550683617591858,0.015107514398261163
4771.84,-0.10684556514024734,0.014946955527206686
4778.3,-0.13573847711086273,0.015999364061937478
4784.78,-0.16129682958126068,0.01723417455622974
4791.26,-0.18391837179660797,0.022068874477851434
4797.75,-0.2045506089925766,0.021837797522564525
4804.25,-0.22314965724945068,0.025999746389274065
4810.76,-0.23803456127643585,0.02770873372066169
4817.28,-0.24639639258384705,0.02990034113630332
4823.8,-0.24570554494857788,0.029968949119209356
4830.34,-0.23511850833892822,0.031012443358852754
4836.88,-0.21596327424049377,0.02736787371160002
4843.43,-0.19103552401065826,0.029307665258381813
4849.99,-0.16328226029872894,0.02942960779843934
4856.56,-0.13471022248268127,0.030837413894202352
4863.14,-0.1062072142958641,0.031848449306515
4869.73,-0.07824211567640305,0.03183888634852309
4876.33,-0.051744282245635986,0.03139026911934023
4882.94,-0.028312889859080315,0.03128022295126099
4889.55,-0.009431996382772923,0.031079951926455587
4896.17,0.004998085554689169,0.030950637328490314
4902.81,0.01744457334280014,0.03142930844364213
4909.45,0.03220633417367935,0.03138496180187811
4916.1,0.05353160947561264,0.03021207226318222
4922.76,0.082975834608078,0.030416245570710036
4929.43,0.11777964979410172,0.02532183776922594
4936.11,0.15132838487625122,0.026183254221537017
4942.79,0.17578013241291046,0.026004648496890548
4949.49,0.18592801690101624,0.027705669166833667
4956.2,0.18174219131469727,0.02656408742634789
4962.91,0.16894842684268951,0.02662986265619582
4969.63,0.15642179548740387,0.027522252136702844
4976.37,0.15194746851921082,0.027954095134933733
4983.11,0.15835343301296234,0.024866357719236058
4989.86,0.17174655199050903,0.0223250566807284
4996.62,0.18303182721138,0.02195586708977957
5003.39,0.18179121613502502,0.022213478454077056
5010.17,0.16082093119621277,0.02375618273979988
5016.95,0.11932431161403656,0.023629113901450505
5023.75,0.06311540305614471,0.023918995355980334
5030.55,0.002713332185521722,0.024442915102727187
5037.37,-0.05099886655807495,0.02428934665560254
5044.19,-0.08980964869260788,0.023928535252564595
5051.03,-0.11090710759162903,0.023942667094910407
5057.87,-0.11636931449174881,0.023687080392781473
5064.72,-0.11178191006183624,0.020270681561525464
5071.58,-0.1035437285900116,0.019833489920381673
5078.45,-0.09674033522605896,0.01848948109963028
5085.33,-0.09397293627262115,0.018472350040693624
5092.22,-0.09535973519086838,0.01872880728754725
5099.12,-0.09939299523830414,0.015742964849581025
5106.03,-0.10409390926361084,0.015081750909903636
5112.95,-0.10793460160493851,0.015372416168021418
5119.87,-0.1102181002497673,0.015224220876444105
5126.81,-0.110934317111969,0.015227369284077334
5133.75,-0.11028142273426056,0.01516140623569092
5140.71,-0.10829561203718185,0.013460701120193323
5147.67,-0.10479980707168579,0.013872262372800736
5154.65,-0.09971333295106888,0.011398661660767887
5161.63,-0.0935501903295517,0.011515665476695698
5168.62,-0.0875985249876976,0.011605803219241767
5175.62,-0.08360925316810608,0.012139607012328987
5182.64,-0.08291686326265335,0.012390056217855544
5189.66,-0.08543533831834793,0.012278714486974701
5196.69,-0.08910543471574783,0.012024929087381791
5203.73,-0.09035509079694748,0.012290120440349708
5210.78,-0.08550819754600525,0.012223706366125906
5217.84,-0.07258075475692749,0.011882184332575506
5224.91,-0.05251579359173775,0.011836875053956563
5231.98,-0.029108790680766106,0.011686176962823749
5239.07,-0.007302811369299889,0.011405645941677789
5246.17,0.008931172080338001,0.011040480614353773
5253.28,0.018561236560344696,0.009659954063459313
5260.39,0.023754430934786797,0.012276619432341224
5267.52,0.02839481644332409,0.012354069175795285
5274.66,0.03550137206912041,0.013177042921526503
5281.8,0.045166026800870895,0.0131544305278047
5288.96,0.05425487458705902,0.013710361250613649
5296.12,0.058108508586883545,0.014342678791572474
5303.3,0.05365031957626343,0.015335163372324616
5310.48,0.04191446304321289,0.01439309077718319
5317.67,0.02862454392015934,0.015692595299936333
5324.88,0.022200370207428932,0.01559868631442708
5332.09,0.030187875032424927,0.015731687790932685
5339.32,0.05572260171175003,0.015521547896835549
5346.55,0.09597444534301758,0.015590054012139067
5353.79,0.14345452189445496,0.016911934521602497
5361.05,0.18918979167938232,0.01749306050067105
5368.31,0.22591225802898407,0.01820323857162583
5375.58,0.25044530630111694,0.01812520078521402
5382.86,0.26317593455314636,0.01823833168874261
5390.16,0.26622846722602844,0.019044837566416232
5397.46,0.2613849937915802,0.017502351975258113
5404.77,0.24933642148971558,0.01748048989268009
5412.09,0.23049066960811615,0.017251824136933734
5419.42,0.20671133697032928,0.01730132112977034
5426.77,0.18238642811775208,0.017795050324537584
5434.12,0.1639094352722168,0.01715164035280917
5441.48,0.157053604722023,0.015381251925965038
5448.85,0.16419613361358643,0.01543083366743544
5456.23,0.18264544010162354,0.014556958287138046
5463.62,0.20546090602874756,0.014574181086196453
5471.03,0.2245604693889618,0.015071948108963031
5478.44,0.23438438773155212,0.016081365031548656
5485.86,0.2344917505979538,0.017499222434660195
5493.29,0.22908622026443481,0.017037471427513252
5500.73,0.22411632537841797,0.01689146764041477
5508.18,0.2233990877866745,0.017271408503423954
5515.65,0.22599494457244873,0.01803693849963359
5523.12,0.22630073130130768,0.017637175849500947
5530.6,0.21685510873794556,0.015779211119987677
5538.09,0.192233145236969,0.01580249275281875
5545.6,0.1518436074256897,0.01539479747923052
5553.11,0.1004316508769989,0.013426862126351434
5560.63,0.04552297294139862,0.013530649051276157
5568.17,-0.00598568469285965,0.013251783156676649
5575.71,-0.05033170431852341,0.01132314146226441
5583.26,-0.08797327429056168,0.011028697621132528
5590.83,-0.12181194871664047,0.010285227412212048
5598.4,-0.1545545607805252,0.010811349242165121
5605.98,-0.18705013394355774,0.01175663182951138
5613.58,-0.21784986555576324,0.011887972195242222
5621.18,-0.24436572194099426,0.01201748769934507
5628.8,-0.26495182514190674,0.011194344165624153
5636.42,-0.2796657085418701,0.012534888969322254
5644.06,-0.29015570878982544,0.012526107712975739
5651.71,-0.2980649173259735,0.011539098301082906
5659.36,-0.3037121593952179,0.011081778668596722
5667.03,-0.30574679374694824,0.011043410498004818
5674.71,-0.3021082878112793,0.01137083120982736
5682.39,-0.2918040156364441,0.011805740554777813
5690.09,-0.2760962247848511,0.011942625927309814
5697.8,-0.2583658695220947,0.01164569241874246
5705.52,-0.24239619076251984,0.013218505377076235
5713.25,-0.23009778559207916,0.015126146371866525
5720.99,-0.21999406814575195,0.014277342763512287
5728.74,-0.2074500322341919,0.012992153751612058
5736.5,-0.18663792312145233,0.01277661149690721
5744.27,-0.15323421359062195,0.012647283925447448
5752.05,-0.10642553120851517,0.012703053833816143
5759.84,-0.04920712113380432,0.012160024105515121
5767.65,0.013149214908480644,0.012297743387780807
5775.46,0.07506973296403885,0.013562121057230056
5783.29,0.13308240473270416,0.013737614358102227
5791.12,0.18572039902210236,0.012973070588161816
5798.97,0.2332778424024582,0.012672920711578476
5806.82,0.2758311629295349,0.013687712463185692
5814.69,0.31280583143234253,0.01411910675713276
5822.57,0.3427085280418396,0.014122357217621638
5830.45,0.36441296339035034,0.014374869397591623
5838.35,0.37840649485588074,0.014710260015664101
5846.26,0.38698408007621765,0.014962376363406419
5854.18,0.3935987651348114,0.01421589058131058
5862.11,0.4012361168861389,0.01162908318241981
5870.05,0.4109569489955902,0.010835585505957625
5878.01,0.42146337032318115,0.011913025698695201
5885.97,0.4298827648162842,0.013041750680743683
5893.94,0.43347594141960144,0.012429840822469755
5901.93,0.4310200810432434,0.010751785668634195
5909.92,0.42323845624923706,0.010840932206837415
5917.93,0.4119848608970642,0.011731977090574218
5925.95,0.3988149166107178,0.012428619639394725
5933.97,0.3838382661342621,0.012083627363393872
5942.01,0.3655773103237152,0.009945559520552738
5950.06,0.3421328663825989,0.009638267986477985
5958.12,0.3126369118690491,0.00961401122899253
5966.2,0.2782050371170044,0.0094413493899414
5974.28,0.24184784293174744,0.009071406951535039
5982.37,0.20680367946624756,0.008444208740491978
5990.48,0.174892395734787,0.00961321575935869
5998.59,0.1456480622291565,0.011268768932671092
6006.72,0.11652406305074692,0.012587340908220128
6014.85,0.08502472937107086,0.012678969281702151
6023.0,0.050573837012052536,0.012626650743753246
6031.16,0.015988679602742195,0.0123074950600705
6039.33,-0.013271509669721127,0.012533569078474027
6047.52,-0.03142843768000603,0.013157910850969526
6055.71,-0.03526526317000389,0.012769758529095357
6063.91,-0.026425832882523537,0.01308394660161533
6072.13,-0.011327634565532207,0.012666214134078271
6080.35,0.000882017076946795,0.012160588688671594
6088.59,0.0018972556572407484,0.012206592952332363
6096.84,-0.012652911245822906,0.012194014192501042
6105.1,-0.04160548374056816,0.012200687182524117
6113.37,-0.07904892414808273,0.013142686464817883
6121.65,-0.11687073111534119,0.01315593403737755
6129.94,-0.14781002700328827,0.012529572669102916
6138.25,-0.16768354177474976,0.012271670226586085
6146.56,-0.17586749792099,0.012046046420556244
6154.89,-0.17459629476070404,0.011998939386183594
6163.23,-0.16726528108119965,0.011165536186283031
6171.58,-0.15724897384643555,0.011143611633433572
6179.94,-0.1474294513463974,0.011351504151012343
6188.31,-0.1404137760400772,0.01109088213909821
6196.69,-0.13879425823688507,0.010043430232505153
6205.09,-0.144863560795784,0.008785168632922733
6213.5,-0.1596655547618866,0.008974122905225316
6221.91,-0.18185780942440033,0.0089448884486802
6230.34,-0.2074275016784668,0.010528328609540213
6238.78,-0.23045535385608673,0.010532643027008631
6247.23,-0.24529044330120087,0.010536514230202517
6255.7,-0.24894389510154724,0.010508970191125531
6264.17,-0.24254970252513885,0.010962652847727267
6272.66,-0.2310899794101715,0.010232899378157228
6281.16,-0.22122232615947723,0.010487179960066937
6289.67,-0.2182530164718628,0.010283220131361308
6298.19,-0.2237279862165451,0.010236692993237836
6306.72,-0.2348734587430954,0.010092995246998636
6315.26,-0.24615445733070374,0.008862667797715591
6323.82,-0.2521154582500458,0.009250944879097668
6332.38,-0.24994473159313202,0.009405955652223847
6340.96,-0.2405579537153244,0.009560701186991634
6349.55,-0.2275693267583847,0.009642621811592833
6358.15,-0.21496589481830597,0.009660076839501808
6366.77,-0.20480839908123016,0.009673301629693386
6375.39,-0.19638055562973022,0.009635450658488913
6384.03,-0.1870385855436325,0.010040291397755384
6392.68,-0.17443148791790009,0.008260735806309124
6401.34,-0.15845823287963867,0.00838318235421822
6410.01,-0.14189690351486206,0.009176173339793202
6418.7,-0.12923963367938995,0.009120273019750368
6427.39,-0.12453493475914001,0.00905755372342901
6436.1,-0.129318505525589,0.008810715165737565
6444.82,-0.1421511024236679,0.008711680052209684
6453.55,-0.15970341861248016,0.012348282769264559
6462.29,-0.1787859946489334,0.016800008116867163
6471.04,-0.19786234200000763,0.020763650547721186
6479.81,-0.2170119434595108,0.020701303003414905
6488.59,-0.23619244992733002,0.020792186475492996
6497.38,-0.2531003952026367,0.02084112348679274
6506.18,-0.26203012466430664,0.02068218896779891
6515.0,-0.254989355802536,0.02056414745044013
6523.82,-0.2249668389558792,0.020486643826038254
6532.66,-0.16983221471309662,0.02029654003486807
6541.51,-0.09494147449731827,0.02004154967319568
6550.37,-0.012515555135905743,0.01945350748679756
6559.25,0.06226678192615509,0.01895113742136878
6568.13,0.11649586260318756,0.018560308866113213
6577.03,0.14496056735515594,0.017617521104052614
6585.94,0.15141263604164124,0.018134572219277365
6594.86,0.14675763249397278,0.01943932670058596
6603.8,0.14386174082756042,0.020036105756589106
6612.74,0.15187899768352509,0.020509670880365476
6621.7,0.1725383698940277,0.01940837272175779
6630.67,0.2000395506620407,0.01648231929726732
6639.65,0.2243937849998474,0.011996163662842223
6648.65,0.23646795749664307,0.012931147788063141
6657.66,0.23216120898723602,0.012532925534873255
6666.68,0.21407340466976166,0.012085689372625722
6675.71,0.18977488577365875,0.012604280262325865
6684.75,0.16787189245224,0.012766086698642442
6693.81,0.15382719039916992,0.01265578825814242
6702.88,0.14761005342006683,0.012641884954939847
6711.96,0.14397075772285461,0.012496771633232127
6721.05,0.13531449437141418,0.012057687781702848
6730.15,0.1155693531036377,0.011828473932369285
6739.27,0.08318618685007095,0.01024521119256152
6748.4,0.042050253599882126,0.011006813342593265
6757.54,-0.0002525470918044448,0.011246728669167915
6766.7,-0.03582093119621277,0.010639066803182386
6775.86,-0.059690602123737335,0.01073231569906542
6785.04,-0.07203123718500137,0.011412937847682266
6794.24,-0.07749167829751968,0.01227160114183224
6803.44,-0.08285526931285858,0.011601292618399907
6812.66,-0.09377539157867432,0.011504252776439707
6821.89,-0.11221087723970413,0.01324875207567104
6831.13,-0.13584831357002258,0.013304039532041668
6840.38,-0.15957613289356232,0.013810801611601652
6849.65,-0.17814190685749054,0.015280407197726355
6858.93,-0.18839120864868164,0.016726424645346953
6868.22,-0.19013145565986633,0.016529148572323515
6877.52,-0.1850331872701645,0.01591165255121374
6886.84,-0.1745258867740631,0.017100449747892557
6896.17,-0.15818652510643005,0.017149428720807765
6905.51,-0.13378731906414032,0.01759751067106231
6914.87,-0.0992107167840004,0.01780214730263204
6924.24,-0.05528216436505318,0.01576672713591472
6933.62,-0.007395925000309944,0.01582487788591172
6943.01,0.03535764291882515,0.01682463234792862
6952.42,0.06384497135877609,0.017771111056635907
