wvl,flux,err
4001.77,0.20729514956474304,0.17870485138633677
4007.19,0.35954174399375916,0.16391610475613566
4012.62,0.5017942786216736,0.1488381026488962
4018.06,0.605615496635437,0.17960979128650253
4023.5,0.6542977094650269,0.1920399275317357
4028.95,0.6478587985038757,0.1744902942736766
4034.41,0.6005594730377197,0.17260369130784986
4039.88,0.5333188772201538,0.1694706464185547
4045.35,0.46441587805747986,0.17710850818485668
4050.83,0.4024350643157959,0.1711812321100911
4056.32,0.34572386741638184,0.16946253890419272
4061.81,0.28691500425338745,0.16048653185487025
4067.32,0.2195415198802948,0.15988312884314831
4072.83,0.14430594444274902,0.16696567848185326
4078.34,0.06912663578987122,0.18498381067816524
4083.87,0.004864309448748827,0.18295904325043155
4089.4,-0.040709737688302994,0.16939303496134075
4094.94,-0.06904427707195282,0.15828528180651
4100.49,-0.09095090627670288,0.15460135622979262
4106.04,-0.12172015011310577,0.1556331276870844
4111.61,-0.17319297790527344,0.15913578925384386
4117.18,-0.24601778388023376,0.15120626544196974
4122.75,-0.32774609327316284,0.1509497170635764
4128.34,-0.3972022235393524,0.14443450934926827
4133.93,-0.4326212406158447,0.14760185164142295
4139.53,-0.4223164916038513,0.14168070730309434
4145.14,-0.3700203597545624,0.13550535223035984
4150.75,-0.29435497522354126,0.13130335933305487
4156.38,-0.22113735973834991,0.13203105534507556
4162.01,-0.1739669293165207,0.13107231723089557
4167.65,-0.1646910011768341,0.13109562681626558
4173.29,-0.19047294557094574,0.13321546006186585
4178.95,-0.23684458434581757,0.11810487775601121
4184.61,-0.28485119342803955,0.09086532678343597
4190.28,-0.31954485177993774,0.092030350191285
4195.95,-0.33479470014572144,0.0886610758761046
4201.64,-0.3336538076400757,0.08872147402136035
4207.33,-0.32412639260292053,0.08867431912836816
4213.03,-0.31375250220298767,0.092003394934286
4218.74,-0.3055039048194885,0.09458120337332356
4224.45,-0.2971988320350647,0.09423340181964207
4230.18,-0.2841234803199768,0.1179449327340324
4235.91,-0.26325613260269165,0.11879669268382526
4241.64,-0.23624558746814728,0.11215760470034927
4247.39,-0.20962020754814148,0.11964190892848711
4253.14,-0.19255538284778595,0.11774906037068408
4258.91,-0.19261635839939117,0.11889371662196555
4264.68,-0.2126772552728653,0.12362249544892093
4270.45,-0.24955525994300842,0.1226971487332672
4276.24,-0.2957165539264679,0.12322963243487509
4282.03,-0.3418009281158447,0.12222453902951742
4287.83,-0.3800658583641052,0.13009875826786313
4293.64,-0.4058569669723511,0.1301172319672605
4299.46,-0.4178037643432617,0.13012775021901316
4305.28,-0.4168374538421631,0.1351686982125221
4311.12,-0.40504327416419983,0.14222354690553304
4316.96,-0.38502901792526245,0.14289549792745787
4322.8,-0.3599548041820526,0.14516244719290933
4328.66,-0.333543986082077,0.13967248867813734
4334.52,-0.31003889441490173,0.1392641245454946
4340.4,-0.29285314679145813,0.12183668099377558
4346.28,-0.28357091546058655,0.12125809079092353
4352.16,-0.2808971405029297,0.12291678337975107
4358.06,-0.2812029719352722,0.11183696515402808
4363.96,-0.2802157998085022,0.10927698030243468
4369.88,-0.27519476413726807,0.10698717800110069
4375.8,-0.2665625810623169,0.10092878898490681
4381.72,-0.2579263746738434,0.10072556295192084
4387.66,-0.25432872772216797,0.10208531228560352
4393.6,-0.25970882177352905,0.09867202549813964
4399.56,-0.2746330201625824,0.08789879844643132
4405.52,-0.2956600487232208,0.08756176286901893
4411.49,-0.31680411100387573,0.08686404824413677
4417.46,-0.332118421792984,0.07142276099858098
4423.45,-0.3383851647377014,0.0568128341989598
4429.44,-0.33603742718696594,0.059062411059282206
4435.44,-0.32841479778289795,0.05280650600226445
4441.45,-0.3193020224571228,0.05180932162386465
4447.46,-0.31044691801071167,0.05241193824144796
4453.49,-0.3002232015132904,0.05154559286841011
4459.52,-0.28441759943962097,0.050247270876199415
4465.56,-0.2583882212638855,0.05197494878659877
4471.61,-0.21975292265415192,0.05253358732914949
4477.67,-0.16999097168445587,0.06002553467560053
4483.74,-0.11422489583492279,0.05982120570391545
4489.81,-0.05941825360059738,0.06529273171268778
4495.89,-0.011524751782417297,0.06627755473692626
4501.98,0.0261660348623991,0.06409816177904197
4508.08,0.05363299325108528,0.0626366510488985
4514.19,0.07325706630945206,0.06473101164365422
4520.31,0.08832638710737228,0.066197580162999
4526.43,0.1018596962094307,0.0677386882840449
4532.56,0.11641888320446014,0.06852397152000751
4538.7,0.13452252745628357,0.06897974630153195
4544.85,0.15915676951408386,0.06517263465351299
4551.01,0.1934908926486969,0.06425880212760073
4557.17,0.23954732716083527,0.06858781918503706
4563.35,0.29683512449264526,0.07213481463624546
4569.53,0.36090001463890076,0.07383676249674821
4575.72,0.4245261549949646,0.07510819453065726
4581.92,0.47976866364479065,0.07604592851246181
4588.13,0.5211386680603027,0.07502293835498021
4594.34,0.5478442907333374,0.07128966618320395
4600.57,0.5640474557876587,0.07166626820604206
4606.8,0.5760324597358704,0.06831921480169946
4613.04,0.588505744934082,0.06741776031765276
4619.29,0.6010069251060486,0.06804667252591119
4625.55,0.6070448756217957,0.0734149091456133
4631.81,0.5966107249259949,0.0700391686830218
4638.09,0.5611900091171265,0.07553673906876804
4644.37,0.4991089403629303,0.07365195656976939
4650.66,0.4181218445301056,0.07333482873432447
4656.96,0.334116131067276,0.07191525049216989
4663.27,0.265788197517395,0.07217838226403872
4669.59,0.22758257389068604,0.07394611075624356
4675.92,0.2240130752325058,0.07245625722205015
4682.25,0.2479376345872879,0.0683049027081158
4688.59,0.2837405502796173,0.06438948875408515
4694.94,0.3138540983200073,0.06375265262836854
4701.3,0.32553088665008545,0.06181388531065571
4707.67,0.3150412440299988,0.06347333969280589
4714.05,0.2875683307647705,0.06279295394728017
4720.44,0.2532521188259125,0.06280858421757743
4726.83,0.22167786955833435,0.061891931499264544
4733.24,0.19733121991157532,0.06536448270584705
4739.65,0.17880095541477203,0.06559014365241098
4746.07,0.16060896217823029,0.058197916465422016
4752.5,0.13720323145389557,0.05834825330117189
4758.94,0.10600225627422333,0.05717625432530823
4765.38,0.06810136139392853,0.05511537556990529
4771.84,0.026107899844646454,0.058251257360067414
4778.3,-0.018456384539604187,0.05920711901997913
4784.78,-0.06743790209293365,0.07777404950021184
4791.26,-0.12451677024364471,0.08026812295918877
4797.75,-0.19200852513313293,0.0851409415627269
4804.25,-0.26616403460502625,0.10764414772113287
4810.76,-0.33490732312202454,0.10968630715029261
4817.28,-0.3797602355480194,0.11039474558523833
4823.8,-0.38217246532440186,0.1147315341436624
4830.34,-0.3321007192134857,0.11378891978201733
4836.88,-0.2347058355808258,0.11700926189150325
4843.43,-0.1117628961801529,0.11745803458497499
4849.99,0.0035979438107460737,0.11870242938572197
4856.56,0.0776047632098198,0.12225875655523256
4863.14,0.0879824087023735,0.12283993001641266
4869.73,0.03260046988725662,0.12271173478629749
4876.33,-0.0690547376871109,0.1214825226836324
4882.94,-0.18237540125846863,0.12080994595030603
4889.55,-0.269461989402771,0.12020291585746382
4896.17,-0.3023817837238312,0.11792117116572765
4902.81,-0.2709636390209198,0.11805505833290016
4909.45,-0.18436457216739655,0.10920800250771194
4916.1,-0.06530939042568207,0.11169507122856952
4922.76,0.059911713004112244,0.10792332072813139
4929.43,0.17102406919002533,0.08529023559675981
4936.11,0.2592918276786804,0.08328976309296597
4942.79,0.32710254192352295,0.08904484235029635
4949.49,0.3831847608089447,0.09000123173908069
4956.2,0.4348033368587494,0.09147062616818553
4962.91,0.4826282560825348,0.08606701897642934
4969.63,0.5193331241607666,0.08582232678843771
4976.37,0.5323391556739807,0.08507813688968768
4983.11,0.5095354318618774,0.07669894899528026
4989.86,0.44539669156074524,0.07562236759156592
4996.62,0.34412625432014465,0.07697203237748926
5003.39,0.2192104011774063,0.07768918244306175
5010.17,0.08944672346115112,0.07611238825337306
5016.95,-0.026560068130493164,0.07561449286344502
5023.75,-0.11620792001485825,0.08196331186872381
5030.55,-0.1743476837873459,0.08213670638756358
5037.37,-0.20403605699539185,0.08639387052250268
5044.19,-0.21281936764717102,0.07627101944500955
5051.03,-0.2094605714082718,0.07764628276206574
5057.87,-0.2005273699760437,0.0755692558190961
5064.72,-0.18911215662956238,0.0745337243473376
5071.58,-0.1753888726234436,0.0713544159955486
5078.45,-0.15845316648483276,0.06312068523619581
5085.33,-0.13826420903205872,0.061666757613838635
5092.22,-0.11668086051940918,0.06166269867615081
5099.12,-0.09714169055223465,0.05976595805751681
5106.03,-0.08326619118452072,0.059983629674559454
5112.95,-0.07719112932682037,0.06019329423149352
5119.87,-0.07855904847383499,0.06090073521918013
5126.81,-0.08472081273794174,0.06205486011503844
5133.75,-0.09206745028495789,0.060080289917931
5140.71,-0.09782525897026062,0.060480565905401094
5147.67,-0.10127683728933334,0.05937131957021801
5154.65,-0.10392142832279205,0.051879266224491315
5161.63,-0.10823401808738708,0.052436185703314805
5168.62,-0.11582697182893753,0.04982842116378256
5175.62,-0.12588585913181305,0.04986989306887831
5182.64,-0.1348627358675003,0.049655013580862876
5189.66,-0.13763214647769928,0.04964996827355207
5196.69,-0.12986160814762115,0.05064509505028835
5203.73,-0.11019009351730347,0.05001498193799199
5210.78,-0.08127254992723465,0.04970606242263085
5217.84,-0.04895085096359253,0.05222075097561877
5224.91,-0.019817447289824486,0.052375353129285575
5231.98,0.0017089558532461524,0.05377947369189112
5239.07,0.015563086606562138,0.05403174982393458
5246.17,0.025890743359923363,0.052637532588044274
5253.28,0.03918088600039482,0.0540029208658552
5260.39,0.06094863638281822,0.04953286254747499
5267.52,0.09290967881679535,0.05214810202088636
5274.66,0.1316538006067276,0.052019638807808403
5281.8,0.16985441744327545,0.052178181824097135
5288.96,0.19954657554626465,0.054254195481412006
5296.12,0.215317502617836,0.05330132127567119
5303.3,0.21705597639083862,0.04990359090804176
5310.48,0.209865540266037,0.04991744880226364
5317.67,0.20201149582862854,0.049149782958885266
5324.88,0.20132917165756226,0.050180548947505246
5332.09,0.2119220644235611,0.049108226629999335
5339.32,0.2323610931634903,0.04759113942597361
5346.55,0.25607195496559143,0.04807187065574703
5353.79,0.27384787797927856,0.04337644277537745
5361.05,0.2770638167858124,0.04074116972691253
5368.31,0.2605847716331482,0.03977201637159536
5375.58,0.22451210021972656,0.039624507822671205
5382.86,0.17407596111297607,0.04301054119117701
5390.16,0.11815065145492554,0.04233786556328711
5397.46,0.06732206791639328,0.04411054568451793
5404.77,0.03103039599955082,0.03997957864995885
5412.09,0.015874236822128296,0.040977161961689046
5419.42,0.024290598928928375,0.04086815496236531
5426.77,0.05427009239792824,0.038492315553428066
5434.12,0.09985638409852982,0.038766466600174514
5441.48,0.15280215442180634,0.0365036638427571
5448.85,0.20447391271591187,0.03754590206027304
5456.23,0.2477957159280777,0.038589527939120634
5463.62,0.2785217761993408,0.03821407274201385
5471.03,0.2954563796520233,0.03855240044042823
5478.44,0.29947707056999207,0.039025162413949745
5485.86,0.29228493571281433,0.03849422715745481
5493.29,0.2750250995159149,0.03889863133244474
5500.73,0.24798715114593506,0.03765007123505426
5508.18,0.21134312450885773,0.03780752057812841
5515.65,0.1664516180753708,0.03876634604762051
5523.12,0.11718656122684479,0.034750291656428185
5530.6,0.06956809759140015,0.02934643184481128
5538.09,0.03050387278199196,0.02802473836377943
5545.6,0.0053012617863714695,0.029530522315627313
5553.11,-0.004409323446452618,0.027397720588529458
5560.63,-0.0018328437581658363,0.027024203337519166
5568.17,0.006225504446774721,0.027719510544609412
5575.71,0.011827669106423855,0.02762604527305972
5583.26,0.008875369094312191,0.02881203889339252
5590.83,-0.005107589066028595,0.029259913229210947
5598.4,-0.029026512056589127,0.028518589999805326
5605.98,-0.0601775124669075,0.027032346802887915
5613.58,-0.0967807024717331,0.028394948384640444
5621.18,-0.13938523828983307,0.03203866568574864
5628.8,-0.1907908320426941,0.03628944985708399
5636.42,-0.25322937965393066,0.03561854022859339
5644.06,-0.3257015347480774,0.03584251586852734
5651.71,-0.4013316333293915,0.03690794104247134
5659.36,-0.46790412068367004,0.03632497415925932
5667.03,-0.5113379955291748,0.03701075726378749
5674.71,-0.5199955701828003,0.03700174420163877
5682.39,-0.4897436499595642,0.03695393748877107
5690.09,-0.4260304570198059,0.03360282165673052
5697.8,-0.3428320586681366,0.03361207780473574
5705.52,-0.25842198729515076,0.0338113695382207
5713.25,-0.18966196477413177,0.03449549567156759
5720.99,-0.14698787033557892,0.034598041267917407
5728.74,-0.13183221220970154,0.03145350834126077
5736.5,-0.13715916872024536,0.028048460724170925
5744.27,-0.15057042241096497,0.027563056078656948
5752.05,-0.15860974788665771,0.02751396367234594
5759.84,-0.1507261097431183,0.03065629523258819
5767.65,-0.12174255400896072,0.03196107256886487
5775.46,-0.07262074202299118,0.029592222714923337
5783.29,-0.00924869254231453,0.029908576127147604
5791.12,0.05921553075313568,0.03550150145937503
5798.97,0.12330629676580429,0.03551029981894239
5806.82,0.17486070096492767,0.04369957502321326
5814.69,0.20927345752716064,0.04383520697315982
5822.57,0.22566835582256317,0.045457192674191266
5830.45,0.22688508033752441,0.04551565307488794
5838.35,0.2181679755449295,0.04547114753918566
5846.26,0.2053772211074829,0.04559108602511945
5854.18,0.19345615804195404,0.04601727265411625
5862.11,0.1855417639017105,0.04669415351284466
5870.05,0.18304994702339172,0.04621825034252262
5878.01,0.18644116818904877,0.04660172496485252
5885.97,0.19598053395748138,0.04675231709081153
5893.94,0.21184752881526947,0.047664571384201715
5901.93,0.23338621854782104,0.046807909973489166
5909.92,0.2577821612358093,0.04638771960642581
5917.93,0.279541939496994,0.046039176822714724
5925.95,0.291037917137146,0.04620172455343663
5933.97,0.28503522276878357,0.04652227232767834
5942.01,0.2579316198825836,0.04059338289693015
5950.06,0.21227861940860748,0.041503421500070276
5958.12,0.15707994997501373,0.034322509577818815
5966.2,0.10499262809753418,0.03356792430869551
5974.28,0.06771904975175858,0.029550606799263093
5982.37,0.050624482333660126,0.03148918510705971
5990.48,0.05046122521162033,0.031753019586043714
5998.59,0.056658074259757996,0.029589440256975158
6006.72,0.05623456463217735,0.03117737710325769
6014.85,0.04023094102740288,0.02942885297801264
6023.0,0.00844266265630722,0.029060391354356067
6031.16,-0.02989392913877964,0.03233822976152268
6039.33,-0.06016608327627182,0.034614105616749664
6047.52,-0.06937595456838608,0.031716239907527685
6055.71,-0.05265934020280838,0.03219918045735644
6063.91,-0.016413725912570953,0.03321957065980223
6072.13,0.024126874282956123,0.03280794176543632
6080.35,0.05112070217728615,0.03688330142275619
6088.59,0.0521637424826622,0.036482763195655306
6096.84,0.025375444442033768,0.03638507901545916
6105.1,-0.019789844751358032,0.0355303474348545
6113.37,-0.06687147170305252,0.03860359634983862
6121.65,-0.09938056021928787,0.03827720653289316
6129.94,-0.10718235373497009,0.03821705523846031
6138.25,-0.08953030407428741,0.03734718466194272
6146.56,-0.05396561697125435,0.038460327145686694
6154.89,-0.012019416317343712,0.039965226696846
6163.23,0.025428295135498047,0.03881653818294937
6171.58,0.05140327289700508,0.039073618671851856
6179.94,0.06329147517681122,0.03776502726727916
6188.31,0.061312731355428696,0.03509191383454361
6196.69,0.046639494597911835,0.033570440106354196
6205.09,0.020606940612196922,0.03360307667497686
6213.5,-0.014487776905298233,0.03297319973575862
6221.91,-0.05407576262950897,0.034937990994416565
6230.34,-0.09114427119493484,0.03571693195647072
6238.78,-0.1175488829612732,0.031919234908700966
6247.23,-0.127433642745018,0.033443051932514935
6255.7,-0.12045683711767197,0.033757112048689
6264.17,-0.10307233035564423,0.03604026502698969
6272.66,-0.0865200012922287,0.03354544386753812
6281.16,-0.08211243152618408,0.03317053795619976
6289.67,-0.09571893513202667,0.03312790292634241
6298.19,-0.12441925704479218,0.033288799467019806
6306.72,-0.15719389915466309,0.0320352847114439
6315.26,-0.17963345348834991,0.029861720833306127
6323.82,-0.1805640459060669,0.030350930775598504
6332.38,-0.15737766027450562,0.03011791401299777
6340.96,-0.11754485964775085,0.030083002723433897
6349.55,-0.07548121362924576,0.028674030933166384
6358.15,-0.046251676976680756,0.028775608271589283
6366.77,-0.03926056995987892,0.02821045161390911
6375.39,-0.05496031790971756,0.03139178229424668
6384.03,-0.08573603630065918,0.02754693423488616
6392.68,-0.12039214372634888,0.02702485095067364
6401.34,-0.14957967400550842,0.026849340068090987
6410.01,-0.16936835646629333,0.027624392701315253
6418.7,-0.18136726319789886,0.027489031333790277
6427.39,-0.18972569704055786,0.023590644147389796
6436.1,-0.19730044901371002,0.024448285370769565
6444.82,-0.20304860174655914,0.024371953587648397
6453.55,-0.20244285464286804,0.024321527315847597
6462.29,-0.19035784900188446,0.025494149739875974
6471.04,-0.16462300717830658,0.02952414504109286
6479.81,-0.12793473899364471,0.030738578983699038
6488.59,-0.0870501920580864,0.02998865806196174
6497.38,-0.049363620579242706,0.029273370601892088
6506.18,-0.0190762709826231,0.030064252302060727
6515.0,0.0048586721532046795,0.03038027500524671
6523.82,0.027542414143681526,0.030744074224875267
6532.66,0.05465403571724892,0.0315878321875798
6541.51,0.08806053549051285,0.030664985235269813
6550.37,0.12372763454914093,0.030902007453961693
6559.25,0.15304505825042725,0.030448258667140692
6568.13,0.16704313457012177,0.03561814698417485
6577.03,0.1617782711982727,0.03684766243282416
6585.94,0.1411925107240677,0.038327487873007805
6594.86,0.11625489592552185,0.03945437565122029
6603.8,0.1000475063920021,0.03845432823459975
6612.74,0.10141332447528839,0.03856788083740924
6621.7,0.12008257210254669,0.03864709113846679
6630.67,0.14631961286067963,0.03843670427183392
6639.65,0.16521993279457092,0.03698778077181649
6648.65,0.1639063060283661,0.03592636254282935
6657.66,0.1379893571138382,0.03580674416085459
6666.68,0.09428330510854721,0.03568560263040664
6675.71,0.048073671758174896,0.035695778730795276
6684.75,0.016339313238859177,0.03565890768566755
6693.81,0.010133182629942894,0.03592052907096883
6702.88,0.029831334948539734,0.034188991177741615
6711.96,0.06512606143951416,0.033774420390888585
6721.05,0.09998827427625656,0.033850283865511484
6730.15,0.11980424076318741,0.034001702999427064
6739.27,0.11726394295692444,0.02411345569596609
6748.4,0.09432294219732285,0.022164953939938295
6757.54,0.05985456705093384,0.020798804129374713
6766.7,0.024308647960424423,0.019879701009014084
6775.86,-0.005265381652861834,0.02182720805649821
6785.04,-0.02792304940521717,0.021636056286185156
6794.24,-0.04739193618297577,0.021440628155818754
6803.44,-0.06839242577552795,0.019523348089507737
6812.66,-0.09285813570022583,0.016763271912456138
6821.89,-0.11804630607366562,0.01713423422631923
6831.13,-0.13798706233501434,0.0174606016130147
6840.38,-0.14700399339199066,0.017091183179993464
6849.65,-0.1432294100522995,0.016508887791869976
6858.93,-0.1299375742673874,0.01841962262280435
6868.22,-0.1139049232006073,0.017343466200999188
6877.52,-0.10160806030035019,0.01839598629965446
6886.84,-0.09559032320976257,0.020433020649321322
6896.17,-0.09323587268590927,0.021132924819996998
6905.51,-0.08870939165353775,0.022514065292874426
6914.87,-0.0771561935544014,0.026358695236027577
6924.24,-0.05861690640449524,0.027838206588474027
6933.62,-0.03907998278737068,0.027365408857867805
6943.01,-0.027571992948651314,0.029242983208850742
6952.42,-0.030437352135777473,0.031329098467911265
6961.83,-0.04577774554491043,0.03326368747500854
6971.27,-0.06135217845439911,0.03761991615958806
6980.71,-0.0576300248503685,0.04162003462245776
6990.17,-0.015624847263097763,0.046093252591242355
