wvl,flux,err
4001.77,0.35204678773880005,0.035046788024593545
4007.19,0.4471730589866638,0.06494256269814098
4012.62,0.5119328498840332,0.09080651252898565
4018.06,0.5380744934082031,0.07846934475366563
4023.5,0.534137487411499,0.07055970417816759
4028.95,0.5185613632202148,0.06960265066318207
4034.41,0.5075039863586426,0.07850467346717664
4039.88,0.5048480033874512,0.07459783651116994
4045.35,0.5005345940589905,0.07049105863067998
4050.83,0.4780731201171875,0.06903882443307949
4056.32,0.4261915683746338,0.06920781421717884
4061.81,0.3473833501338959,0.06538828256803136
4067.32,0.25708073377609253,0.06484334185633273
4072.83,0.17627441883087158,0.05729059513161591
4078.34,0.11930440366268158,0.0545683234073115
4083.87,0.08718782663345337,0.05558462319467761
4089.4,0.06924992054700851,0.05903592315419692
4094.94,0.05074654147028923,0.0602899981171321
4100.49,0.022587386891245842,0.06263106533569185
4106.04,-0.013776374980807304,0.06220510986186427
4111.61,-0.04898880422115326,0.05882989676316611
4117.18,-0.07277490198612213,0.05893108836813837
4122.75,-0.0815453752875328,0.04827910605786425
4128.34,-0.0804544985294342,0.0506130202407534
4133.93,-0.0795753002166748,0.04983782904803082
4139.53,-0.0869845375418663,0.052255449729432836
4145.14,-0.10341278463602066,0.054269141179666774
4150.75,-0.12197455018758774,0.0514916293109161
4156.38,-0.1331169158220291,0.05299526106114067
4162.01,-0.13097429275512695,0.052060345416008486
4167.65,-0.11757883429527283,0.052353605462846634
4173.29,-0.10181475430727005,0.0501342202481371
4178.95,-0.09415001422166824,0.04994513702084925
4184.61,-0.10074804723262787,0.05057662375708846
4190.28,-0.12007500976324081,0.052552963041834565
4195.95,-0.1442260444164276,0.052757752211864746
4201.64,-0.16391585767269135,0.050181336921013224
4207.33,-0.17356449365615845,0.04780022416908396
4213.03,-0.17441003024578094,0.047915783108616924
4218.74,-0.17324130237102509,0.05133993993000361
4224.45,-0.1782631278038025,0.052587882948401256
4230.18,-0.1942938268184662,0.05122371931425824
4235.91,-0.21984533965587616,0.049765151228463644
4241.64,-0.2476901113986969,0.050275780288139664
4247.39,-0.2684749662876129,0.04747972078088724
4253.14,-0.2750359773635864,0.049702802069794515
4258.91,-0.26615381240844727,0.049422944829412736
4264.68,-0.24706865847110748,0.04739898277239059
4270.45,-0.2271612286567688,0.049307254926601526
4276.24,-0.21557553112506866,0.04915855152830947
4282.03,-0.21756525337696075,0.04983180187231194
4287.83,-0.23265701532363892,0.050132857916337
4293.64,-0.25614044070243835,0.049557535421780846
4299.46,-0.28245049715042114,0.045361270405899774
4305.28,-0.3084929585456848,0.04168764431623424
4311.12,-0.33503103256225586,0.04595759408035549
4316.96,-0.36461108922958374,0.04616637529084988
4322.8,-0.3982534110546112,0.045533039723538754
4328.66,-0.43261203169822693,0.04142749284962208
4334.52,-0.45968097448349,0.039156899381479295
4340.4,-0.4706726670265198,0.041989610600074834
4346.28,-0.46070894598960876,0.04090367044748845
4352.16,-0.43265804648399353,0.040085260640935344
4358.06,-0.39627063274383545,0.04173238725463813
4363.96,-0.36385080218315125,0.036289227420834555
4369.88,-0.34365493059158325,0.038438639470031524
4375.8,-0.33616748452186584,0.04551043788721875
4381.72,-0.3343053162097931,0.04551857256887743
4387.66,-0.3284754157066345,0.04474701648133124
4393.6,-0.3126767873764038,0.04261340097312181
4399.56,-0.28794869780540466,0.04281417685794502
4405.52,-0.26142191886901855,0.044615918002517276
4411.49,-0.24128979444503784,0.04705866913624043
4417.46,-0.23177792131900787,0.04855598036775159
4423.45,-0.23090243339538574,0.04617997986990037
4429.44,-0.23268570005893707,0.045853985174879326
4435.44,-0.2315458357334137,0.04600607255892631
4441.45,-0.22586598992347717,0.04584790739642202
4447.46,-0.2180994153022766,0.045925902656214684
4453.49,-0.21158722043037415,0.04638028524599287
4459.52,-0.20693393051624298,0.048956071126974865
4465.56,-0.20073485374450684,0.05013781144057939
4471.61,-0.188068225979805,0.05092933530941966
4477.67,-0.166766956448555,0.051038412299671626
4483.74,-0.14010101556777954,0.048983738155477664
4489.81,-0.1153683215379715,0.04363288172046374
4495.89,-0.09863711148500443,0.043399762661957546
4501.98,-0.08959205448627472,0.04399673353356013
4508.08,-0.08007349818944931,0.04406872976742115
4514.19,-0.05824770778417587,0.043928192131896374
4520.31,-0.01622522994875908,0.0419229511034659
4526.43,0.04367874190211296,0.04514785981186374
4532.56,0.10897109657526016,0.04495773449422039
4538.7,0.16331146657466888,0.04580251977054521
4544.85,0.1960878074169159,0.04923259815896273
4551.01,0.2090577632188797,0.049242736082872426
4557.17,0.2156287580728531,0.0497897969560505
4563.35,0.23289845883846283,0.0499002069737742
4569.53,0.27105143666267395,0.0469619942049919
4575.72,0.3269898295402527,0.04510563683808112
4581.92,0.38584715127944946,0.04335900159232663
4588.13,0.42965322732925415,0.04194880410397831
4594.34,0.44775402545928955,0.04060494209012
4600.57,0.44287464022636414,0.04042316768587784
4606.8,0.42881709337234497,0.039894346666338114
4613.04,0.422259122133255,0.039804966371775434
4619.29,0.4333491325378418,0.03930464640101419
4625.55,0.46094492077827454,0.03890955383314817
4631.81,0.4946763515472412,0.03959783499983027
4638.09,0.5221775770187378,0.04197151438614579
4644.37,0.5358540415763855,0.03552389227001158
4650.66,0.5361751914024353,0.034190731499393015
4656.96,0.5291203856468201,0.031190777864171574
4663.27,0.5209687352180481,0.027465353916147142
4669.59,0.5139893293380737,0.028550156885598227
4675.92,0.5058109164237976,0.02821110629554835
4682.25,0.49237456917762756,0.025322875625054992
4688.59,0.4718174338340759,0.02618086622238318
4694.94,0.44638320803642273,0.026306871727694886
4701.3,0.4209691882133484,0.028688981621658415
4707.67,0.3995122015476227,0.02693011669232488
4714.05,0.38185569643974304,0.02781434330192551
4720.44,0.3633398711681366,0.0281751037230772
4726.83,0.33748164772987366,0.028457685706262746
4733.24,0.2998043894767761,0.027946412127974468
4739.65,0.25088152289390564,0.02690095477235478
4746.07,0.195919930934906,0.027445153975018875
4752.5,0.14213860034942627,0.027760891587220504
4758.94,0.09496375918388367,0.026643627789015873
4765.38,0.05547941476106644,0.022266501551313957
4771.84,0.019992275163531303,0.023492720756708316
4778.3,-0.01742219738662243,0.024413536924987864
4784.78,-0.06231904402375221,0.025427544857788486
4791.26,-0.11682618409395218,0.0257139256901042
4797.75,-0.17905119061470032,0.0255622952643011
4804.25,-0.2435590922832489,0.025246987914507298
4810.76,-0.30337992310523987,0.02864489642282935
4817.28,-0.35235700011253357,0.028698729456820025
4823.8,-0.3869805335998535,0.0282026898857984
4830.34,-0.4073927402496338,0.02795083124381521
4836.88,-0.4163758456707001,0.02701186483845999
4843.43,-0.4179808795452118,0.02645671895462974
4849.99,-0.4153227210044861,0.029883823622177338
4856.56,-0.40934064984321594,0.029737427670501554
4863.14,-0.3989465832710266,0.030356213637000258
4869.73,-0.3825213611125946,0.027944750328606344
4876.33,-0.35977521538734436,0.02681450520118162
4882.94,-0.33262163400650024,0.026677188331504915
4889.55,-0.30428260564804077,0.02779835682695264
4896.17,-0.27678605914115906,0.03133145472416575
4902.81,-0.24877001345157623,0.02691203751913553
4909.45,-0.2151443064212799,0.02723557499810226
4916.1,-0.16896435618400574,0.02887409577275394
4922.76,-0.10540539026260376,0.03031524768669713
4929.43,-0.025068102404475212,0.030031073015937545
4936.11,0.0652736946940422,0.030367139891189106
4942.79,0.1551014482975006,0.03031987702475902
4949.49,0.23528097569942474,0.0396890957484292
4956.2,0.3011985123157501,0.0404051245655806
4962.91,0.3542877435684204,0.042698767472772604
4969.63,0.3996666371822357,0.04747577114756329
4976.37,0.4413970410823822,0.04574115443005332
4983.11,0.47858789563179016,0.047101899963086356
4989.86,0.5049548745155334,0.04763663004984481
4996.62,0.5111340880393982,0.04667553798198077
5003.39,0.4892110824584961,0.04531277490588538
5010.17,0.4366343915462494,0.045348570421319075
5016.95,0.3577938377857208,0.043170807895145234
5023.75,0.262202650308609,0.03911242581357465
5030.55,0.16212275624275208,0.03915496764636333
5037.37,0.06839437782764435,0.037711265542715436
5044.19,-0.010555173270404339,0.0378117981795673
5051.03,-0.07047300785779953,0.03772692939480689
5057.87,-0.11002374440431595,0.03645895675829653
5064.72,-0.1308584064245224,0.03529387327895311
5071.58,-0.13629700243473053,0.03526232489617975
5078.45,-0.13036733865737915,0.030501226362888195
5085.33,-0.11662199348211288,0.032599452760521064
5092.22,-0.09728511422872543,0.03162256350708022
5099.12,-0.07329325377941132,0.026857587463310472
5106.03,-0.04539903253316879,0.027040596353438726
5112.95,-0.015739256516098976,0.02556484234103983
5119.87,0.011255948804318905,0.02301765988800295
5126.81,0.029827073216438293,0.023016346425022288
5133.75,0.03503844887018204,0.022667442375505085
5140.71,0.025798924267292023,0.022559227060590294
5147.67,0.0060909222811460495,0.02334048513692487
5154.65,-0.016314078122377396,0.02215930629683712
5161.63,-0.03325923904776573,0.02205459033952606
5168.62,-0.04035605862736702,0.021637262478713754
5175.62,-0.03895079717040062,0.023406447809369745
5182.64,-0.03508681803941727,0.02270935345246173
5189.66,-0.03584779426455498,0.021841204628541108
5196.69,-0.04507577791810036,0.021956543281959718
5203.73,-0.060984089970588684,0.022055969119069353
5210.78,-0.07683652639389038,0.023727345674282797
5217.84,-0.08419375866651535,0.018999065893318658
5224.91,-0.07685356587171555,0.01905491350162001
5231.98,-0.05348708853125572,0.019095379410840836
5239.07,-0.01772768422961235,0.02209349844319501
5246.17,0.023585861548781395,0.021589394442178014
5253.28,0.0632534921169281,0.021544462421388258
5260.39,0.09605731070041656,0.021416961283607955
5267.52,0.12025608867406845,0.023338621451676825
5274.66,0.13736316561698914,0.02321694053364633
5281.8,0.1514381319284439,0.022011241789068443
5288.96,0.16742636263370514,0.024620434165639415
5296.12,0.1888711005449295,0.02676594786206708
5303.3,0.21612437069416046,0.026778973013352227
5310.48,0.24525204300880432,0.026006352592717365
5317.67,0.2693276107311249,0.02628802711432092
5324.88,0.28133368492126465,0.02680422147056854
5332.09,0.2778398394584656,0.026051413288884898
5339.32,0.2615472674369812,0.02703052817608954
5346.55,0.24058353900909424,0.025423115399287825
5353.79,0.2245861291885376,0.025354046088381266
5361.05,0.21959620714187622,0.025206071870707746
5368.31,0.22465907037258148,0.02667061277938667
5375.58,0.23227420449256897,0.023678116552582215
5382.86,0.232966810464859,0.025533361669780163
5390.16,0.22112344205379486,0.02678986055322022
5397.46,0.1986902505159378,0.026665241137582733
5404.77,0.1741846352815628,0.026812592279723622
5412.09,0.15766096115112305,0.02610149045466714
5419.42,0.15475788712501526,0.02624466034102615
5426.77,0.16368405520915985,0.025301361467904838
5434.12,0.17704591155052185,0.029064140538298373
5441.48,0.18739169836044312,0.02902134268167749
5448.85,0.19259829819202423,0.02884047259010079
5456.23,0.1974068135023117,0.030816306104132645
5463.62,0.2099102884531021,0.03062809183054354
5471.03,0.23524557054042816,0.030273850594447187
5478.44,0.27053457498550415,0.030766151542478137
5485.86,0.30496835708618164,0.03079689747101916
5493.29,0.3248918056488037,0.031173900625673268
5500.73,0.3211570382118225,0.0317830861879784
5508.18,0.2941330671310425,0.030518617906448355
5515.65,0.25328588485717773,0.030707381948365628
5523.12,0.21199220418930054,0.030684526667733695
5530.6,0.18020099401474,0.02937944872520577
5538.09,0.16019800305366516,0.029847288866877146
5545.6,0.14707377552986145,0.028651023251402834
5553.11,0.1333160698413849,0.031765017344823426
5560.63,0.11388050764799118,0.030630472501049655
5568.17,0.08867959678173065,0.028804070351345495
5575.71,0.06115499138832092,0.02598722176964937
5583.26,0.0341806523501873,0.025414711468976604
5590.83,0.006934002041816711,0.025041319371250165
5598.4,-0.025146842002868652,0.0245701340618462
5605.98,-0.06764525175094604,0.02473291954090572
5613.58,-0.12325963377952576,0.02435221367520514
5621.18,-0.18952032923698425,0.02423181531201087
5628.8,-0.26035669445991516,0.025038411675219103
5636.42,-0.32878395915031433,0.02502330796699221
5644.06,-0.3907301127910614,0.02583227748169974
5651.71,-0.4452732801437378,0.02593122148386465
5659.36,-0.49322670698165894,0.029491552995873943
5667.03,-0.5345551371574402,0.028714387192061305
5674.71,-0.566470205783844,0.031233021951751257
5682.39,-0.5846610069274902,0.030776339520886545
5690.09,-0.5861193537712097,0.0337323595963029
5697.8,-0.5714083313941956,0.03051722299777042
5705.52,-0.5450186729431152,0.0319788125013588
5713.25,-0.5128738284111023,0.030883155823963126
5720.99,-0.4787595272064209,0.03061353495760606
5728.74,-0.4420580267906189,0.028901329946975324
5736.5,-0.39841264486312866,0.023851357976895568
5744.27,-0.34300702810287476,0.024990040262407143
5752.05,-0.27437347173690796,0.02626251105871343
5759.84,-0.1962451934814453,0.024986469264482277
5767.65,-0.11610347032546997,0.024604682211616012
5775.46,-0.041844382882118225,0.025076504810717288
5783.29,0.02277153916656971,0.024396946423282943
5791.12,0.07893742620944977,0.026703040222075775
5798.97,0.13190799951553345,0.026259424820278734
5806.82,0.18663591146469116,0.02926002298739641
5814.69,0.24474979937076569,0.02982125373950248
5822.57,0.3026590943336487,0.030063751543183633
5830.45,0.35321474075317383,0.0307279005933473
5838.35,0.3892526626586914,0.0331236799997529
5846.26,0.40645095705986023,0.032383924178378716
5854.18,0.40522488951683044,0.030971032797754868
5862.11,0.3900608718395233,0.03109836000427736
5870.05,0.36744698882102966,0.030888665058522793
5878.01,0.34359055757522583,0.03166547021348418
5885.97,0.32312047481536865,0.03265682767239723
5893.94,0.308540940284729,0.02966553844197955
5901.93,0.30060845613479614,0.029531958239715612
5909.92,0.2986285984516144,0.026384470965953664
5917.93,0.30041950941085815,0.026415741724511686
5925.95,0.302433580160141,0.026587140080691542
5933.97,0.3002723455429077,0.026531596056290113
5942.01,0.2899254560470581,0.026322067368977017
5950.06,0.2693334221839905,0.026975984145120518
5958.12,0.2395411878824234,0.025819016405957358
5966.2,0.20461240410804749,0.026739730985376086
5974.28,0.17035607993602753,0.02300000295161813
5982.37,0.1417454034090042,0.023029403232159653
5990.48,0.12091846019029617,0.020700890402673776
5998.59,0.10637041926383972,0.02080046666509112
6006.72,0.09360486268997192,0.02035449974997971
6014.85,0.0775286853313446,0.019294167777173823
6023.0,0.054800618439912796,0.01954947194187006
6031.16,0.025563949719071388,0.019952407473932347
6039.33,-0.0066284253261983395,0.019298663649200323
6047.52,-0.036390114575624466,0.01929294213276778
6055.71,-0.05862816050648689,0.019219697989829764
6063.91,-0.0707104504108429,0.018474695580802374
6072.13,-0.07308448851108551,0.018292933790312726
6080.35,-0.06877708435058594,0.017937940940161264
6088.59,-0.06206768378615379,0.01788862776817654
6096.84,-0.056970126926898956,0.018066395304473237
6105.1,-0.05613696575164795,0.01820396732677764
6113.37,-0.060350626707077026,0.02126000572762165
6121.65,-0.06848141551017761,0.020318706958145034
6129.94,-0.07774769514799118,0.02317093017588335
6138.25,-0.08428534865379333,0.023311750249184762
6146.56,-0.08408955484628677,0.022613306912735096
6154.89,-0.07445898652076721,0.02267892156681181
6163.23,-0.055382464081048965,0.022688148462167438
6171.58,-0.03033369593322277,0.02264941114639498
6179.94,-0.005724806804209948,0.022854527320921907
6188.31,0.011035199277102947,0.021766206151188905
6196.69,0.01419401541352272,0.021519103721629667
6205.09,0.001782773295417428,0.022644212142565345
6213.5,-0.02382575161755085,0.0234641826682863
6221.91,-0.057157792150974274,0.023536983944042956
6230.34,-0.09223571419715881,0.0241829248304385
6238.78,-0.12449418008327484,0.024154368439234984
6247.23,-0.15167568624019623,0.0238069325148938
6255.7,-0.17306500673294067,0.024591963374766383
6264.17,-0.1880102902650833,0.02406055859560121
6272.66,-0.19539934396743774,0.021272694482781684
6281.16,-0.1941470205783844,0.019964383653711046
6289.67,-0.18486319482326508,0.01789742092632555
6298.19,-0.17099234461784363,0.017458788894618212
6306.72,-0.15831580758094788,0.01816986826839732
6315.26,-0.15260642766952515,0.018168218657558983
6323.82,-0.15661920607089996,0.016923505928071517
6332.38,-0.16826850175857544,0.01718521404591389
6340.96,-0.181357741355896,0.01671259195619601
6349.55,-0.1886230856180191,0.0165995300011253
6358.15,-0.18556582927703857,0.018048215563301474
6366.77,-0.17277441918849945,0.016768960848630783
6375.39,-0.15557631850242615,0.01821467060121405
6384.03,-0.14120876789093018,0.017950298650784454
6392.68,-0.13559682667255402,0.017035437711302875
6401.34,-0.14131025969982147,0.018563404189452154
6410.01,-0.1578066498041153,0.01891395922626753
6418.7,-0.1831669956445694,0.020345505483763467
6427.39,-0.2155582457780838,0.02126901392170906
6436.1,-0.2536274492740631,0.021360845955495394
6444.82,-0.29517853260040283,0.021309309384445876
6453.55,-0.3361316919326782,0.021484347319857763
6462.29,-0.3706892430782318,0.026176621247026938
6471.04,-0.3932625651359558,0.030814053349232377
6479.81,-0.40103593468666077,0.03133756920864806
6488.59,-0.395243763923645,0.03860636533290016
6497.38,-0.3801778554916382,0.05175866364668067
6506.18,-0.3600597679615021,0.052212098549718214
6515.0,-0.3359154164791107,0.05345539354335025
6523.82,-0.30478084087371826,0.05237937216454609
6532.66,-0.2616690695285797,0.0526903958598167
6541.51,-0.20377205312252045,0.05103056161438961
6550.37,-0.1335654854774475,0.051073939748335774
6559.25,-0.058881569653749466,0.05048488136060761
6568.13,0.010078983381390572,0.050889669501639694
6577.03,0.06620939821004868,0.04980041828182917
6585.94,0.10837053507566452,0.04979165039399182
6594.86,0.14154385030269623,0.051608658017454775
6603.8,0.17305044829845428,0.05138834755882774
6612.74,0.2074550837278366,0.05159282623307465
6621.7,0.2436714619398117,0.05189099869693787
6630.67,0.2752365171909332,0.050807206426095014
6639.65,0.29423514008522034,0.05294228193466986
6648.65,0.29592975974082947,0.052647603888188725
6657.66,0.2815185785293579,0.046965130575654455
6666.68,0.25772273540496826,0.03236181287025795
6675.71,0.23347261548042297,0.031833028240860387
6684.75,0.21586742997169495,0.028932764779906053
6693.81,0.2074744701385498,0.030005470139378335
6702.88,0.2060670107603073,0.030926103282187967
6711.96,0.20627586543560028,0.031264183678328145
6721.05,0.2021910548210144,0.028548349655816176
6730.15,0.18957799673080444,0.03099051151829651
6739.27,0.16705749928951263,0.03219836875809344
6748.4,0.13624705374240875,0.03186256315569828
6757.54,0.10083982348442078,0.03248061751993534
6766.7,0.06490831077098846,0.032294698410103274
6775.86,0.031060975044965744,0.03250825368299813
6785.04,-0.0013899506302550435,0.0344825228647476
6794.24,-0.03632436692714691,0.03250037046372776
6803.44,-0.07893725484609604,0.03257947007836719
6812.66,-0.13257353007793427,0.030033891458368656
6821.89,-0.19524593651294708,0.032337321129028374
6831.13,-0.25887754559516907,0.033217781251399764
6840.38,-0.3117428421974182,0.033812820706946994
6849.65,-0.3434675633907318,0.03603757138876842
6858.93,-0.34964337944984436,0.039261180044014916
6868.22,-0.33371827006340027,0.03817701568237134
6877.52,-0.304294615983963,0.037247348923616
6886.84,-0.2697002589702606,0.0374386752125605
6896.17,-0.23344458639621735,0.03897616282379305
6905.51,-0.19336028397083282,0.03592968808109852
6914.87,-0.14530760049819946,0.041970728925313255
6924.24,-0.08887418359518051,0.043779202693788904
6933.62,-0.030396005138754845,0.042215627240769056
6943.01,0.019232062622904778,0.04475385176079407
6952.42,0.05143442004919052,0.04832823122295656
6961.83,0.06693925708532333,0.047547645569229725
6971.27,0.07829251885414124,0.05293619346805917
