wvl,flux,err
4001.77,-0.03878604993224144,0.08178605025339519
4007.19,-0.04248013719916344,0.0401388138619547
4012.62,-0.04676256328821182,0.061546668083226175
4018.06,-0.05154095217585564,0.057446879365144095
4023.5,-0.05669219419360161,0.059334631211435694
4028.95,-0.06209670752286911,0.05741737957599585
4034.41,-0.06761519610881805,0.053064658680805635
4039.88,-0.07310319691896439,0.05608384117556698
4045.35,-0.07840780168771744,0.07421295414520149
4050.83,-0.08340279757976532,0.08797576538109764
4056.32,-0.08796466141939163,0.1196637811262973
4061.81,-0.09198177605867386,0.1207488227217949
4067.32,-0.0953860953450203,0.12067466392437755
4072.83,-0.0981111153960228,0.11857860328817323
4078.34,-0.10013556480407715,0.11714078440301531
4083.87,-0.10147280991077423,0.11734299609397872
4089.4,-0.10215649753808975,0.11837726313398093
4094.94,-0.10225776582956314,0.118348661426784
4100.49,-0.101873017847538,0.11656453015815416
4106.04,-0.10112427920103073,0.11660153238580671
4111.61,-0.10014788061380386,0.11508109226268938
4117.18,-0.09909866750240326,0.11472027869038369
4122.75,-0.09813358634710312,0.11491842993439316
4128.34,-0.09740445017814636,0.11456386922827283
4133.93,-0.09705974906682968,0.11386957391197038
4139.53,-0.09722694009542465,0.10951244805658732
4145.14,-0.0980115532875061,0.1019711767584401
4150.75,-0.09948699921369553,0.088205220486444
4156.38,-0.10169873386621475,0.08576428234109404
4162.01,-0.10464304685592651,0.029662050677256517
4167.65,-0.10828569531440735,0.024472046860067872
4173.29,-0.11254072934389114,0.024983987466266268
4178.95,-0.11730547249317169,0.024777637867182182
4184.61,-0.12241046875715256,0.023237406076897647
4190.28,-0.12767916917800903,0.02311308449526359
4195.95,-0.13289286196231842,0.018425771363029152
4201.64,-0.13784340023994446,0.017678737381307017
4207.33,-0.14227761328220367,0.01768505813501653
4213.03,-0.14597000181674957,0.019226172302826843
4218.74,-0.1486954540014267,0.018675555638929867
4224.45,-0.1502450853586197,0.01968605825163935
4230.18,-0.15044797956943512,0.016464721545639164
4235.91,-0.14915946125984192,0.017613451745417452
4241.64,-0.14628659188747406,0.020821324507059882
4247.39,-0.1417693793773651,0.02187429672691845
4253.14,-0.13561804592609406,0.02317183345484277
4258.91,-0.12786264717578888,0.024543489600082808
4264.68,-0.11862646043300629,0.030812238573352368
4270.45,-0.10806354880332947,0.036178539525237086
4276.24,-0.09632843732833862,0.03595505444758238
4282.03,-0.08368410170078278,0.03567935545424509
4287.83,-0.07036403566598892,0.09451871325668706
4293.64,-0.056638479232788086,0.10532045297953051
4299.46,-0.04278607666492462,0.10766924850032761
4305.28,-0.029106928035616875,0.10828294501701706
4311.12,-0.01581745594739914,0.10961734180469214
4316.96,-0.0032050111331045628,0.10999979376915842
4322.8,0.008524149656295776,0.10965325884627017
4328.66,0.01924077980220318,0.10990214239614957
4334.52,0.0287800170481205,0.10978285066733072
4340.4,0.0370977520942688,0.10948043205376685
4346.28,0.04413485527038574,0.10946218048868726
4352.16,0.04991845041513443,0.10945179873139753
4358.06,0.05453763157129288,0.10967818532575718
4363.96,0.05808388814330101,0.10953715033840077
4369.88,0.060715969651937485,0.10938518286889488
4375.8,0.06259570270776749,0.10757143143223134
4381.72,0.06391724944114685,0.10512742260570565
4387.66,0.06488459557294846,0.10430478198075041
4393.6,0.06569039821624756,0.10348083560106253
4399.56,0.06652280688285828,0.061064285147596084
4405.52,0.06754285842180252,0.036170013401519915
4411.49,0.06888603419065475,0.031516317930625766
4417.46,0.07064734399318695,0.030069126621979185
4423.45,0.0728885680437088,0.02574814739640591
4429.44,0.0756152868270874,0.024344950178494515
4435.44,0.07879762351512909,0.024065973301210915
4441.45,0.08235902339220047,0.021108278695122062
4447.46,0.08617623150348663,0.021309877752261692
4453.49,0.0901099368929863,0.021262033959680626
4459.52,0.09396819025278091,0.021238202058731958
4465.56,0.0975593850016594,0.020679464132987043
4471.61,0.10067590326070786,0.01880281748614791
4477.67,0.10311050713062286,0.01889477220355412
4483.74,0.10466645658016205,0.018443940024097317
4489.81,0.1051664799451828,0.018167623284118053
4495.89,0.10446806997060776,0.018219430738090042
4501.98,0.10246127098798752,0.01808305573750218
4508.08,0.09907864034175873,0.015686806435623805
4514.19,0.09429927170276642,0.01435855030386827
4520.31,0.08815071731805801,0.01457903040434011
4526.43,0.08072081953287125,0.013233208644187424
4532.56,0.07212252169847488,0.012833382617361486
4538.7,0.06251734495162964,0.01304365483556128
4544.85,0.05210103094577789,0.011974922997014923
4551.01,0.04109552130103111,0.01220461030547228
4557.17,0.029758060351014137,0.01272172637771283
4563.35,0.01829764060676098,0.011499744977502406
4569.53,0.006992552895098925,0.011820960277017394
4575.72,-0.00394836300984025,0.011886892206587193
4581.92,-0.014321031048893929,0.010677850225063427
4588.13,-0.023952949792146683,0.011472918714471746
4594.34,-0.03269602730870247,0.01118442453175752
4600.57,-0.04048954322934151,0.01383902632284012
4606.8,-0.0472632460296154,0.014967468614891871
4613.04,-0.05303482711315155,0.014904121068789168
4619.29,-0.05785370245575905,0.015646287091935603
4625.55,-0.06181151792407036,0.01564270001493361
4631.81,-0.0650315135717392,0.015516762290277902
4638.09,-0.06768276542425156,0.014777390910204849
4644.37,-0.06993409246206284,0.014800610434766846
4650.66,-0.07197978347539902,0.020435966354675646
4656.96,-0.07401025295257568,0.020611502153593895
4663.27,-0.07620715349912643,0.02142095434221696
4669.59,-0.07873386144638062,0.021964152097820502
4675.92,-0.08172690123319626,0.022622076884085858
4682.25,-0.08528304100036621,0.02266517012743467
4688.59,-0.08946867287158966,0.022471043972545814
4694.94,-0.09430322796106339,0.022792869574835065
4701.3,-0.09976174682378769,0.023372204049068947
4707.67,-0.10577570647001266,0.02355942700097798
4714.05,-0.11223599314689636,0.024343361621617605
4720.44,-0.11899784952402115,0.02392798183057378
4726.83,-0.12587697803974152,0.023913029221649656
4733.24,-0.13270093500614166,0.023867945964046205
4739.65,-0.13924367725849152,0.023968234789015393
4746.07,-0.1453104317188263,0.02395392748004562
4752.5,-0.15070447325706482,0.024409020545922616
4758.94,-0.15524759888648987,0.02583073621475896
4765.38,-0.1587834656238556,0.025705545183495354
4771.84,-0.16120898723602295,0.021449031914716393
4778.3,-0.16244027018547058,0.02026551756185947
4784.78,-0.16245315968990326,0.019514735244883435
4791.26,-0.16126276552677155,0.022413334101973978
4797.75,-0.15893445909023285,0.022983231748020368
4804.25,-0.15557557344436646,0.023080546366075896
4810.76,-0.15133264660835266,0.024079364176083914
4817.28,-0.14638499915599823,0.024031131880061205
4823.8,-0.14094483852386475,0.0236571619473608
4830.34,-0.13521504402160645,0.023255077933187363
4836.88,-0.12943638861179352,0.023571441094980335
4843.43,-0.12381864339113235,0.02341728194276676
4849.99,-0.1185646578669548,0.023085906009874344
4856.56,-0.11385252326726913,0.024747659431089277
4863.14,-0.10982734709978104,0.024372668882283257
4869.73,-0.10659445077180862,0.025073148602671607
4876.33,-0.10421449691057205,0.024961434412309913
4882.94,-0.10270067304372787,0.02357450382411735
4889.55,-0.10201919823884964,0.0248094614783166
4896.17,-0.1020856648683548,0.026119218315073293
4902.81,-0.10277821123600006,0.028250492725370144
4909.45,-0.10393629968166351,0.027949010083983695
4916.1,-0.10537228733301163,0.025562405113217473
4922.76,-0.1068788543343544,0.023865786543422408
4929.43,-0.1082390621304512,0.023446017260972677
4936.11,-0.10923682898283005,0.02239675907289012
4942.79,-0.10966668277978897,0.023041992416236744
4949.49,-0.10934742540121078,0.02531472439444797
4956.2,-0.10812408477067947,0.02594466064950236
4962.91,-0.10588423907756805,0.025282717496860608
4969.63,-0.10255561023950577,0.024852191186308752
4976.37,-0.09810682386159897,0.024672727874751464
4983.11,-0.09257339686155319,0.023169805734363676
4989.86,-0.0860222652554512,0.02298620859000896
4996.62,-0.07857032120227814,0.022255243392610233
5003.39,-0.07037438452243805,0.022628008461129747
5010.17,-0.06162429600954056,0.022836071930646292
5016.95,-0.05254783108830452,0.021565067643863362
5023.75,-0.04334762692451477,0.019997682188919425
5030.55,-0.03428374603390694,0.015913675866277125
5037.37,-0.025556810200214386,0.01591809230154074
5044.19,-0.01740378513932228,0.01575008667012132
5051.03,-0.009985214099287987,0.015558119929361925
5057.87,-0.003474646480754018,0.015571804509411466
5064.72,0.0020303879864513874,0.01465572579477741
5071.58,0.0064663938246667385,0.013764583172136975
5078.45,0.009818763472139835,0.010574131419559254
5085.33,0.012122484855353832,0.009237756083059967
5092.22,0.013460636138916016,0.00930327157692701
5099.12,0.013960728421807289,0.008885866663773766
5106.03,0.013789105229079723,0.009027262423366655
5112.95,0.0131436288356781,0.009054326172786025
5119.87,0.012246323749423027,0.009051494974477263
5126.81,0.011328594759106636,0.010208592791322543
5133.75,0.010629487223923206,0.01021969754072336
5140.71,0.010376416146755219,0.00959589229349145
5147.67,0.010783410631120205,0.009947951151671299
5154.65,0.012038005515933037,0.009912136653038613
5161.63,0.014291510917246342,0.010683874892335245
5168.62,0.017658574506640434,0.010871842182116214
5175.62,0.022209541872143745,0.012263013466017198
5182.64,0.02797689102590084,0.012905892377151755
5189.66,0.03492362052202225,0.012876934008049347
5196.69,0.0429890900850296,0.012860714736964039
5203.73,0.052064765244722366,0.012764074520879359
5210.78,0.06200587749481201,0.012028829181944306
5217.84,0.07263795286417007,0.011845617904224684
5224.91,0.08376438915729523,0.01180627912163034
5231.98,0.09515862166881561,0.011813386023667589
5239.07,0.10663702338933945,0.011671117928967308
5246.17,0.11797112226486206,0.012197691695956447
5253.28,0.12895913422107697,0.012294327400694399
5260.39,0.13940252363681793,0.011242690725834854
5267.52,0.14917156100273132,0.010608813308616476
5274.66,0.15811888873577118,0.01049557518919503
5281.8,0.166132390499115,0.010477128886465677
5288.96,0.17316727340221405,0.01047868246779006
5296.12,0.17916573584079742,0.0100280114417389
5303.3,0.18413890898227692,0.009896070464648432
5310.48,0.1880907267332077,0.008419647694114222
5317.67,0.191070556640625,0.007014534538544138
5324.88,0.19313859939575195,0.007033054638588717
5332.09,0.19435574114322662,0.007438715246855972
5339.32,0.1947988122701645,0.007264064177240871
5346.55,0.1945360153913498,0.007876518833244243
5353.79,0.1936323195695877,0.007890254153728902
5361.05,0.19213704764842987,0.008306611957823421
5368.31,0.19008944928646088,0.008117436544944978
5375.58,0.18750624358654022,0.008126193159398989
5382.86,0.18438640236854553,0.0077862746872180005
5390.16,0.1807052344083786,0.007981660344494513
5397.46,0.17643555998802185,0.007971892660269904
5404.77,0.17152287065982819,0.00811144659992493
5412.09,0.16590729355812073,0.00941246002959716
5419.42,0.15952451527118683,0.009868232373820769
5426.77,0.1523015946149826,0.010082236359249768
5434.12,0.1442011147737503,0.009884665898500924
5441.48,0.13517169654369354,0.009735885220485654
5448.85,0.12518951296806335,0.009234393508747461
5456.23,0.11425456404685974,0.009000518729595687
5463.62,0.10239463299512863,0.008923711407951203
5471.03,0.08965089917182922,0.009706547628366466
5478.44,0.0761471763253212,0.010373393317218503
5485.86,0.061989810317754745,0.01060178389429981
5493.29,0.04733160138130188,0.010552792452540953
5500.73,0.03235260024666786,0.010502269259874993
5508.18,0.01725565642118454,0.010782133190486267
5515.65,0.0022406112402677536,0.01112004863359045
5523.12,-0.012421485036611557,0.010462475975307922
5530.6,-0.026517445221543312,0.01050305525107281
5538.09,-0.039818473160266876,0.01050942916544588
5545.6,-0.052124571055173874,0.01075112381927339
5553.11,-0.06320484727621078,0.010872222048187169
5560.63,-0.0729072317481041,0.010559778417971925
5568.17,-0.08110532909631729,0.010552238402804972
5575.71,-0.08767519891262054,0.01070229077369486
5583.26,-0.09257020056247711,0.010272664808697856
5590.83,-0.09577720612287521,0.010498596401771991
5598.4,-0.09731055051088333,0.010508945189926028
5605.98,-0.09724253416061401,0.010523696794421705
5613.58,-0.09567473828792572,0.010203933547244646
5621.18,-0.09274657815694809,0.0102703418432841
5628.8,-0.08861741423606873,0.00998933337645642
5636.42,-0.0834830030798912,0.009932285072107057
5644.06,-0.077532097697258,0.008718280150676262
5651.71,-0.070978082716465,0.0076504527010606525
5659.36,-0.0640372782945633,0.0060678961648859935
5667.03,-0.056891199201345444,0.005870987329873778
5674.71,-0.04973350837826729,0.005672541430831534
5682.39,-0.04273847118020058,0.005104469131187385
5690.09,-0.036028217524290085,0.005570698934175639
5697.8,-0.029725247994065285,0.005728811074256398
5705.52,-0.023913314566016197,0.005746622121109794
5713.25,-0.01864635944366455,0.007102334744483942
5720.99,-0.0139495013281703,0.007099871503387479
5728.74,-0.009821309708058834,0.0071076800124564
5736.5,-0.006237213034182787,0.006870309013406783
5744.27,-0.0031538321636617184,0.00729140116482991
5752.05,-0.0005140012362971902,0.007349736864621024
5759.84,0.0017477974761277437,0.007427073800604028
5767.65,0.003702363930642605,0.008004828255027085
5775.46,0.005410046316683292,0.008246232841350669
5783.29,0.006933694705367088,0.00838673910423178
5791.12,0.00831524282693863,0.00845112675874249
5798.97,0.009588983841240406,0.009569562423558123
5806.82,0.010764051228761673,0.009622467807050618
5814.69,0.011836704798042774,0.00962502316499938
5822.57,0.01277883630245924,0.009707119098845954
5830.45,0.013544299639761448,0.009723378236511494
5838.35,0.014073517173528671,0.009663626113802696
5846.26,0.01428986992686987,0.00933442325500278
5854.18,0.014108134433627129,0.00934399298445811
5862.11,0.013437719084322453,0.008508622230648157
5870.05,0.012187476269900799,0.008602349980024331
5878.01,0.01026824489235878,0.008595728187432407
5885.97,0.007606435567140579,0.009074748537781636
5893.94,0.00413676118478179,0.00994006378905637
5901.93,-0.00019216787768527865,0.010282561480989808
5909.92,-0.00539557496085763,0.01011573699235268
5917.93,-0.011487046256661415,0.008900435766026369
5925.95,-0.01843796856701374,0.009070565646226294
5933.97,-0.026190264150500298,0.00918720740598293
5942.01,-0.03468943387269974,0.009844359775678869
5950.06,-0.04383101314306259,0.009332996902961447
5958.12,-0.053498901426792145,0.009311933717809062
5966.2,-0.06357251107692719,0.009534378000211915
5974.28,-0.0738811194896698,0.009417125357185226
5982.37,-0.0842820256948471,0.009608721377312522
5990.48,-0.09462926536798477,0.009874402612617935
5998.59,-0.10473893582820892,0.010020096381093885
6006.72,-0.11448287218809128,0.010132571293243834
6014.85,-0.12369264662265778,0.010185094578783168
6023.0,-0.13226018846035004,0.01058748102860182
6031.16,-0.14005780220031738,0.010583172049419406
6039.33,-0.14698776602745056,0.010282922440233164
6047.52,-0.1529790759086609,0.009378165935876065
6055.71,-0.15795765817165375,0.00894612853683175
6063.91,-0.1618935912847519,0.00894352081094556
6072.13,-0.16477087140083313,0.009035268809295687
6080.35,-0.16657908260822296,0.0090209082889382
6088.59,-0.1673370748758316,0.008711393663370731
6096.84,-0.16706736385822296,0.009735449773579912
6105.1,-0.16580604016780853,0.010466502600613856
6113.37,-0.16359657049179077,0.01137449444736235
6121.65,-0.16048696637153625,0.012027018282486448
6129.94,-0.15652728080749512,0.012649248953865782
6138.25,-0.1517617106437683,0.012904551477558219
6146.56,-0.14624887704849243,0.012415935064687295
6154.89,-0.14002135396003723,0.012160186635915726
6163.23,-0.13312596082687378,0.012144387258156301
6171.58,-0.125599667429924,0.011950433891641576
6179.94,-0.11747564375400543,0.011488293542210445
6188.31,-0.10878407955169678,0.012313573208066343
6196.69,-0.09955333918333054,0.012319088164839911
6205.09,-0.08979988098144531,0.013973153430782736
6213.5,-0.07956364005804062,0.015073842740495934
6221.91,-0.06888997554779053,0.01509064150844819
6230.34,-0.05779142677783966,0.015301042735468104
6238.78,-0.04632396996021271,0.015068365853639609
6247.23,-0.03453895077109337,0.015417515113952826
6255.7,-0.02248191088438034,0.015008442740137367
6264.17,-0.010249750688672066,0.014990800679631574
6272.66,0.002108596498146653,0.014451106594032977
6281.16,0.014492928981781006,0.01393549439166012
6289.67,0.02681008167564869,0.013639705113155388
6298.19,0.03896122798323631,0.01318311651434568
6306.72,0.050843819975852966,0.013723714398728661
6315.26,0.06235388666391373,0.01391310576210835
6323.82,0.07340145111083984,0.013509091715573988
6332.38,0.08386088162660599,0.013048716318449585
6340.96,0.09366438537836075,0.01250982395616729
6349.55,0.10271506011486053,0.011259049216735314
6358.15,0.1109403669834137,0.011247315463593045
6366.77,0.11828979849815369,0.009462117903802114
6375.39,0.12470141798257828,0.007475866463200863
6384.03,0.13016369938850403,0.00823572720532997
6392.68,0.1346578299999237,0.008535380536658407
6401.34,0.13819082081317902,0.009519518301356288
6410.01,0.14078661799430847,0.009372145452674552
6418.7,0.1424870640039444,0.00933570415718292
6427.39,0.14334163069725037,0.009144770155442794
6436.1,0.14342033863067627,0.009161247936658767
6444.82,0.14279864728450775,0.009390472060133137
6453.55,0.14156167209148407,0.011061958951124821
6462.29,0.13979938626289368,0.01260314554487447
6471.04,0.13760368525981903,0.025277106082554193
6479.81,0.13506267964839935,0.025902239330515348
6488.59,0.13226591050624847,0.02600245792721101
6497.38,0.12929461896419525,0.0260551757819214
6506.18,0.12622129917144775,0.02839567358947275
6515.0,0.12310438603162766,0.028308917759756528
6523.82,0.12000071257352829,0.029843903906085146
6532.66,0.11693990975618362,0.03175904725746364
6541.51,0.11394840478897095,0.032732213256761095
6550.37,0.11103517562150955,0.032861755562228805
6559.25,0.1081925481557846,0.0328582312980907
6568.13,0.10540992766618729,0.032634421424417075
6577.03,0.10265262424945831,0.03259748121993084
6585.94,0.09988590329885483,0.032683670680736486
6594.86,0.09706433117389679,0.032742392038997016
6603.8,0.09413399547338486,0.03317999426475774
6612.74,0.09104793518781662,0.03310238941894734
6621.7,0.08774583786725998,0.032469500566732756
6630.67,0.08417981117963791,0.03169950100785476
6639.65,0.08030368387699127,0.03955753402534705
6648.65,0.07607395201921463,0.04074538042274702
6657.66,0.07146520167589188,0.04087166415048869
6666.68,0.06645942479372025,0.04158568995015322
6675.71,0.06105149909853935,0.04089841324276752
6684.75,0.05525019392371178,0.04203254807838182
6693.81,0.049071960151195526,0.041605270442346534
6702.88,0.042560745030641556,0.040972256313093244
6711.96,0.03576870262622833,0.041251467869113045
6721.05,0.028761262074112892,0.04102371573891802
6730.15,0.021615641191601753,0.04090365623244681
6739.27,0.014411055482923985,0.04075771441509055
6748.4,0.007250169292092323,0.040748227426815574
6757.54,0.00023279075685422868,0.04081037017906953
6766.7,-0.006546829827129841,0.04085351625536963
6775.86,-0.012973231263458729,0.04067266953593559
6785.04,-0.018965020775794983,0.040700165037641366
6794.24,-0.024432837963104248,0.040608647655908096
6803.44,-0.02928745560348034,0.04058513228753167
6812.66,-0.03347742557525635,0.02475752629951591
6821.89,-0.03695089742541313,0.020957320207714677
6831.13,-0.03968096151947975,0.019836002269521827
6840.38,-0.041661255061626434,0.0189159906838777
6849.65,-0.042908281087875366,0.017728470185385512
6858.93,-0.04345608875155449,0.015351622331963173
6868.22,-0.04336300864815712,0.014449567571153324
6877.52,-0.04270738735795021,0.01295597328716614
6886.84,-0.04158436506986618,0.009583205504245875
6896.17,-0.040105972439050674,0.010185364888650088
6905.51,-0.03839602321386337,0.010315646252866873
6914.87,-0.036584336310625076,0.01030661437732051
6924.24,-0.03480823338031769,0.01029296017535673
