wvl,flux,err
4001.77,-0.0016272723441943526,0.02562727251242244
4007.19,0.0022241645492613316,0.0012589054513519582
4012.62,0.005781698040664196,0.0047589358623400715
4018.06,0.008904799818992615,0.012465605083370076
4023.5,0.011466119438409805,0.012208923278885873
4028.95,0.013369214721024036,0.011667124512995779
4034.41,0.014537388458848,0.012559312172718167
4039.88,0.014921342954039574,0.014083363300324586
4045.35,0.014504076912999153,0.013348776337624841
4050.83,0.01329695526510477,0.01522702358163758
4056.32,0.011339780874550343,0.014955275986110744
4061.81,0.00870522204786539,0.014369248970375306
4067.32,0.0054738763719797134,0.01358580625005014
4072.83,0.0017684780759736896,0.012964445359545208
4078.34,-0.00228344788774848,0.012703612550090351
4083.87,-0.006561465095728636,0.012651869521104538
4089.4,-0.01091073639690876,0.013000957036540963
4094.94,-0.015200742520391941,0.013550468095500243
4100.49,-0.019299644976854324,0.013524671871600244
4106.04,-0.023080458864569664,0.013006618525457106
4111.61,-0.026451515033841133,0.012125975798343671
4117.18,-0.02931453101336956,0.011885092440898434
4122.75,-0.031607113778591156,0.011649212988468495
4128.34,-0.033294860273599625,0.011428317790189994
4133.93,-0.034351591020822525,0.011421716581033352
4139.53,-0.03478355333209038,0.012042024932729859
4145.14,-0.03461414575576782,0.01172273769887006
4150.75,-0.03388659656047821,0.011142817837204264
4156.38,-0.032656919211149216,0.009669904114585473
4162.01,-0.03099883534014225,0.009441210155582792
4167.65,-0.028989804908633232,0.012611673693981234
4173.29,-0.026718368753790855,0.012289251916861565
4178.95,-0.024262715131044388,0.01256100405971969
4184.61,-0.021715668961405754,0.012448324844433707
4190.28,-0.01915297843515873,0.012447099437061869
4195.95,-0.01665213145315647,0.012140549250208854
4201.64,-0.014268583618104458,0.011156412968797689
4207.33,-0.012065374292433262,0.011114350699455012
4213.03,-0.010082017630338669,0.011138428490644251
4218.74,-0.008351949043571949,0.01088005083525675
4224.45,-0.006901071406900883,0.010508429018322484
4230.18,-0.0057379575446248055,0.011290450485331583
4235.91,-0.004873016383498907,0.011611836684316174
4241.64,-0.004304048605263233,0.011678582658720042
4247.39,-0.004022363573312759,0.011016254798645068
4253.14,-0.0040192632004618645,0.01110768930589894
4258.91,-0.004281196277588606,0.011030785935171879
4264.68,-0.004792765248566866,0.011123747920379413
4270.45,-0.005536508746445179,0.0111171347050283
4276.24,-0.006497562397271395,0.007282288876789527
4282.03,-0.007655095309019089,0.007155673598239392
4287.83,-0.008991406299173832,0.00663317557114161
4293.64,-0.010485853999853134,0.006683335322096769
4299.46,-0.012115459889173508,0.0065374267708254415
4305.28,-0.013851149939000607,0.00648044388691589
4311.12,-0.01566878706216812,0.008326448245250572
4316.96,-0.017527880147099495,0.009184635389749491
4322.8,-0.019388897344470024,0.00919808336111744
4328.66,-0.021213803440332413,0.009173528730677984
4334.52,-0.02294699102640152,0.009280274859561878
4340.4,-0.02454071305692196,0.008969445452215436
4346.28,-0.025932125747203827,0.008072798822757535
4352.16,-0.02706308849155903,0.00850411660449769
4358.06,-0.02787845768034458,0.008676421862570198
4363.96,-0.02831725776195526,0.00842605585740591
4369.88,-0.02832775190472603,0.008403301620126272
4375.8,-0.027861658483743668,0.008313302761462615
4381.72,-0.026882531121373177,0.0086090538520534
4387.66,-0.025359930470585823,0.00861234351933712
4393.6,-0.023282868787646294,0.008611437976696276
4399.56,-0.020644398406147957,0.008705586408530466
4405.52,-0.017467079684138298,0.00871194793058238
4411.49,-0.013778118416666985,0.008797637287635838
4417.46,-0.009631264954805374,0.008772765519266153
4423.45,-0.0050756060518324375,0.007911856509620412
4429.44,-0.00020205508917570114,0.007008047552002723
4435.44,0.004907646216452122,0.007005722759029928
4441.45,0.010154667310416698,0.006865615127712157
4447.46,0.015423985198140144,0.00704318317570484
4453.49,0.02062263898551464,0.006562874230116527
4459.52,0.025621816515922546,0.00641551297731243
4465.56,0.030321169644594193,0.005763388929232701
4471.61,0.03461690992116928,0.0052561484911716255
4477.67,0.03841356933116913,0.005150945951466852
4483.74,0.04162664711475372,0.00528630346559545
4489.81,0.04418066516518593,0.005374925263843321
4495.89,0.0460258387029171,0.005041479450554186
4501.98,0.04712211713194847,0.005813253514045641
4508.08,0.047446008771657944,0.005904797813912599
4514.19,0.046990539878606796,0.005801614896166154
4520.31,0.04576466977596283,0.005787626865163263
4526.43,0.04379540681838989,0.005596208625109852
4532.56,0.041118916124105453,0.005579341864417598
4538.7,0.037783436477184296,0.004981889902760786
4544.85,0.033846449106931686,0.005517551643373684
4551.01,0.02937244065105915,0.006471158400098572
4557.17,0.02443864569067955,0.007214542333920631
4563.35,0.019101476296782494,0.006793368076943553
4569.53,0.01344971638172865,0.007105724737500774
4575.72,0.007546185981482267,0.006977944448029645
4581.92,0.0014590863138437271,0.006938108617403273
4588.13,-0.004747132770717144,0.0068203543097141274
4594.34,-0.011002474464476109,0.0069897762103456095
4600.57,-0.017272135242819786,0.007726934580094676
4606.8,-0.02348628267645836,0.008590834447178718
4613.04,-0.029610320925712585,0.008737630169293053
4619.29,-0.03560419753193855,0.008528623302847614
4625.55,-0.041432008147239685,0.008509373898589136
4631.81,-0.04705248400568962,0.008598935770629175
4638.09,-0.05245474725961685,0.008589910837621773
4644.37,-0.057594675570726395,0.00865999517002055
4650.66,-0.06245696172118187,0.008687805979144939
4656.96,-0.06701931357383728,0.008651261223315053
4663.27,-0.07126133888959885,0.008271712675482967
4669.59,-0.07516469806432724,0.0077571546259894725
4675.92,-0.07871334999799728,0.0076738761723744615
4682.25,-0.08188896626234055,0.007778946158906329
4688.59,-0.08468765765428543,0.006950315951816778
4694.94,-0.08710311353206635,0.00683580709895655
4701.3,-0.08913332968950272,0.006841530624776209
4707.67,-0.09078105539083481,0.0070172162116447605
4714.05,-0.09205416589975357,0.006887147920796106
4720.44,-0.09296587109565735,0.006397069580871906
4726.83,-0.09353379905223846,0.0056164930889713825
4733.24,-0.09378381073474884,0.00545345241213893
4739.65,-0.09374271333217621,0.006197974117779039
4746.07,-0.09344327449798584,0.00656522191254666
4752.5,-0.09292028099298477,0.006441571226942678
4758.94,-0.0922103151679039,0.006857424822701116
4765.38,-0.09135182946920395,0.006856948780310675
4771.84,-0.09037869423627853,0.007381738289038385
4778.3,-0.08932789415121078,0.007447895214440709
4784.78,-0.08822713047266006,0.007474208625753725
4791.26,-0.08710603415966034,0.007527188015836337
4797.75,-0.0859837606549263,0.007339503578701424
4804.25,-0.0848749577999115,0.007426302926750364
4810.76,-0.08378766477108002,0.007628426153235078
4817.28,-0.08272314816713333,0.007697274350585812
4823.8,-0.08167769014835358,0.00791089049501973
4830.34,-0.08063659816980362,0.00769473211618366
4836.88,-0.07958618551492691,0.00770313777176994
4843.43,-0.07850352674722672,0.00771615576670305
4849.99,-0.07736390829086304,0.008024527985938898
4856.56,-0.07614047080278397,0.00795364771596464
4863.14,-0.07480542361736298,0.007700614801940335
4869.73,-0.07333129644393921,0.007508932086211052
4876.33,-0.07169204205274582,0.007495962929780056
4882.94,-0.06986401975154877,0.0077080218684721525
4889.55,-0.06782986223697662,0.007618742399241343
4896.17,-0.0655704215168953,0.006979289009922318
4902.81,-0.06306926906108856,0.007106780287662109
4909.45,-0.06032490357756615,0.007267510649536033
4916.1,-0.05732904002070427,0.007017371853108176
4922.76,-0.05408018082380295,0.006555905852873189
4929.43,-0.05057959258556366,0.006099822289948588
4936.11,-0.04683059826493263,0.006323988437215552
4942.79,-0.0428437776863575,0.0064735171411387455
4949.49,-0.03861267492175102,0.006299928595100486
4956.2,-0.03414786979556084,0.0063258839487703245
4962.91,-0.029460573568940163,0.0063453281967008
4969.63,-0.024547532200813293,0.006540251782817911
4976.37,-0.019402852281928062,0.005975412591702494
4983.11,-0.014041931368410587,0.005931572425499133
4989.86,-0.008456885814666748,0.005894602607642437
4996.62,-0.0026465996634215117,0.005753154794123783
5003.39,0.003389909863471985,0.006517905928378837
5010.17,0.009652671404182911,0.007036722695673794
5016.95,0.016130292788147926,0.007037878881446907
5023.75,0.022836919873952866,0.007344154535160106
5030.55,0.02974478341639042,0.007263639741502934
5037.37,0.03686101362109184,0.007224831317274076
5044.19,0.04414696246385574,0.00734780439699659
5051.03,0.05160006880760193,0.007007227563090457
5057.87,0.059169311076402664,0.006721231136565052
5064.72,0.06683030724525452,0.006270903887122964
5071.58,0.07454271614551544,0.006144213087661798
5078.45,0.0822615846991539,0.006130806849859315
5085.33,0.08993832767009735,0.006268277766914339
5092.22,0.0975218191742897,0.006396965957677906
5099.12,0.10495973378419876,0.006239497106461109
5106.03,0.11219993233680725,0.006553916154367388
5112.95,0.11919188499450684,0.0065190607966457755
5119.87,0.12587836384773254,0.006528456366087177
5126.81,0.13223585486412048,0.006778777489085951
5133.75,0.13820749521255493,0.00642358610735882
5140.71,0.1437789648771286,0.00544405249976095
5147.67,0.1489081233739853,0.0056139765502720654
5154.65,0.1535913497209549,0.005346712095509913
5161.63,0.15780214965343475,0.0053329643166308395
5168.62,0.16154149174690247,0.005969919696245203
5175.62,0.1648082435131073,0.006239912697505418
5182.64,0.1676095426082611,0.006458762772128027
5189.66,0.16994310915470123,0.0065523961801645025
5196.69,0.1718219667673111,0.006523767980369029
5203.73,0.17325517535209656,0.005969984691211932
5210.78,0.17425143718719482,0.005951206838002406
5217.84,0.17481805384159088,0.005478440226137861
5224.91,0.17496010661125183,0.0049633135648537875
5231.98,0.17468039691448212,0.004605181771300609
5239.07,0.17397814989089966,0.004595600013173937
5246.17,0.17284975945949554,0.004350905988998562
5253.28,0.1712893545627594,0.004075627110458017
5260.39,0.1692921668291092,0.00399050721449618
5267.52,0.16684477031230927,0.003825208664796519
5274.66,0.16394132375717163,0.0037705718075537018
5281.8,0.16058003902435303,0.003763039809941348
5288.96,0.15674850344657898,0.0047060289273016444
5296.12,0.15245726704597473,0.004858903831778112
5303.3,0.14770060777664185,0.005328913132616833
5310.48,0.1425028145313263,0.005697385941023292
5317.67,0.136876180768013,0.0063952469602598944
5324.88,0.13083747029304504,0.006388635111289103
5332.09,0.12443488836288452,0.0064018493153277555
5339.32,0.11768956482410431,0.0064695699389408
5346.55,0.11066361516714096,0.0063828399002595895
5353.79,0.10339639335870743,0.006311807175256429
5361.05,0.09592894464731216,0.006289923536992276
5368.31,0.08833450824022293,0.006421819829277178
5375.58,0.08065575361251831,0.006273396755425081
5382.86,0.07294367253780365,0.006187342974057063
5390.16,0.0652354434132576,0.006473174624197988
5397.46,0.057595394551754,0.006601101850654747
5404.77,0.05005042999982834,0.006597980110692942
5412.09,0.04263167083263397,0.0066058509953629985
5419.42,0.0353635773062706,0.006642900500834139
5426.77,0.028254328295588493,0.005529545070261206
5434.12,0.021335288882255554,0.0055731163270305705
5441.48,0.014603063464164734,0.005477252467637117
5448.85,0.008060142397880554,0.005531034892329311
5456.23,0.0017064142739400268,0.00488251812847244
5463.62,-0.004459233954548836,0.004829549892223625
5471.03,-0.01044536754488945,0.004917806131144084
5478.44,-0.016233863309025764,0.0047376928324293615
5485.86,-0.021827783435583115,0.004726331383064096
5493.29,-0.027217188850045204,0.004615235497911874
5500.73,-0.03238677233457565,0.004595880230948294
5508.18,-0.03731560334563255,0.004745673979729383
5515.65,-0.04198361188173294,0.004928648551150561
5523.12,-0.046346962451934814,0.004927736562777354
5530.6,-0.05037795379757881,0.004638639365524742
5538.09,-0.054040610790252686,0.0045420281396900564
5545.6,-0.057303715497255325,0.004568639013577404
5553.11,-0.0601251944899559,0.004669460924082472
5560.63,-0.06248239055275917,0.004596195277756218
5568.17,-0.06435798108577728,0.00537852200849206
5575.71,-0.06573659926652908,0.005140095831679939
5583.26,-0.06662378460168839,0.005243934436358612
5590.83,-0.06703617423772812,0.005246590393476089
5598.4,-0.06700295209884644,0.005313791929557308
5605.98,-0.06657131016254425,0.005145487820626138
5613.58,-0.06580100953578949,0.005051632174499127
5621.18,-0.0647682175040245,0.005164779998337551
5628.8,-0.06355709582567215,0.005112885633886205
5636.42,-0.062266360968351364,0.0051274428559505494
5644.06,-0.06099480390548706,0.00527989526011039
5651.71,-0.05984877049922943,0.005112755202120342
5659.36,-0.05893281474709511,0.005022449194706455
5667.03,-0.05834195017814636,0.005229019263416286
5674.71,-0.05816592276096344,0.00507552358027982
5682.39,-0.05847913399338722,0.004844054733112881
5690.09,-0.05933967977762222,0.004837258119468091
5697.8,-0.060786161571741104,0.0050818754005614395
5705.52,-0.06283528357744217,0.005550509796860866
5713.25,-0.06548089534044266,0.004884350749167756
5720.99,-0.06869380921125412,0.005369229408769609
5728.74,-0.07242252677679062,0.005761048239310757
5736.5,-0.07659497857093811,0.0057688899318391815
5744.27,-0.08112115412950516,0.005749613234577684
5752.05,-0.08589653670787811,0.005743353289922274
5759.84,-0.09080618619918823,0.005770819114079472
5767.65,-0.09573555737733841,0.006555312864369896
5775.46,-0.10054995119571686,0.008188918852872805
5783.29,-0.10514336079359055,0.008656705755665323
5791.12,-0.10939387232065201,0.008623369956367973
5798.97,-0.11321548372507095,0.008596916455296895
5806.82,-0.11651714891195297,0.008485599221582029
5814.69,-0.11924640834331512,0.00828257919315814
5822.57,-0.12135819345712662,0.008177699319791187
5830.45,-0.12283288687467575,0.008251738236100613
5838.35,-0.12367971986532211,0.00834640004193265
5846.26,-0.12392216175794601,0.008303122662133582
5854.18,-0.12360580265522003,0.008026358587688246
5862.11,-0.12279288470745087,0.008034032842042496
5870.05,-0.12155870348215103,0.007580647689889001
5878.01,-0.11998556554317474,0.007061529514474283
5885.97,-0.11816592514514923,0.006517570336206014
5893.94,-0.11618704348802567,0.005885039754576415
5901.93,-0.11413069814443588,0.006067887110631465
5909.92,-0.11207778006792068,0.006298354664186536
5917.93,-0.1100868359208107,0.006185406400656108
5925.95,-0.10820893198251724,0.004448624391431145
5933.97,-0.1064772978425026,0.0035266620747108424
5942.01,-0.10489977896213531,0.003322625598739493
5950.06,-0.1034720167517662,0.003279624381451265
5958.12,-0.10216887295246124,0.003279691817737527
5966.2,-0.10094670206308365,0.0039357644427249735
5974.28,-0.09975172579288483,0.004917320654175624
5982.37,-0.09851370006799698,0.005525412734846581
5990.48,-0.09715401381254196,0.005875693331276227
5998.59,-0.09559428691864014,0.00670315143992821
6006.72,-0.09374861419200897,0.006746190814388081
6014.85,-0.09154224395751953,0.0069234142225601
6023.0,-0.08889804780483246,0.006852149258365235
6031.16,-0.08575624972581863,0.006703378820543147
6039.33,-0.08206769078969955,0.006683334200546559
6047.52,-0.07779296487569809,0.006758730572371663
6055.71,-0.07292395830154419,0.00670681813722215
6063.91,-0.06745526939630508,0.006994922350188111
6072.13,-0.06139545142650604,0.006722714648136183
6080.35,-0.054790470749139786,0.006731579462861963
6088.59,-0.047671396285295486,0.006726145797221058
6096.84,-0.04010466858744621,0.006673157246753689
6105.1,-0.03215949237346649,0.006691388271565268
6113.37,-0.023912504315376282,0.006634099204378595
6121.65,-0.01544498372823,0.006525966388963093
6129.94,-0.006840057671070099,0.006109475478690626
6138.25,0.0018303846009075642,0.005777735004854868
6146.56,0.010466289706528187,0.006470065472868011
6154.89,0.019014377146959305,0.007562593778974253
6163.23,0.027396878227591515,0.008288964040379687
6171.58,0.03555448353290558,0.008113057274342087
6179.94,0.04343661665916443,0.008099855582645912
6188.31,0.05100168287754059,0.008102562263908443
6196.69,0.058216918259859085,0.008227315153524708
6205.09,0.06506603211164474,0.008294219889266735
6213.5,0.07152304798364639,0.008315876714318476
6221.91,0.07757048308849335,0.008443877691093062
6230.34,0.08321848511695862,0.008631753579318377
6238.78,0.08845921605825424,0.008732526966496483
6247.23,0.09329602867364883,0.008849643381062389
6255.7,0.09774018824100494,0.00892622780908371
6264.17,0.10178874433040619,0.008922525356857199
6272.66,0.10546121001243591,0.009073532383083163
6281.16,0.10876301676034927,0.009041305627714756
6289.67,0.11170592159032822,0.00908007000054791
6298.19,0.11430277675390244,0.009123576594330426
6306.72,0.1165677085518837,0.008364289198966077
6315.26,0.11851633340120316,0.006481820052327109
6323.82,0.12016787379980087,0.005170393916414174
6332.38,0.12153727561235428,0.005641229908441466
6340.96,0.12264912575483322,0.005776011067303994
6349.55,0.12352429330348969,0.0056951100343453735
6358.15,0.12418702244758606,0.00582011262002982
6366.77,0.12466298788785934,0.0057884739884090704
6375.39,0.12497618794441223,0.005898709952583971
6384.03,0.12515220046043396,0.005592461227100999
6392.68,0.12521342933177948,0.005669192354727621
6401.34,0.12518002092838287,0.0059527759541914554
6410.01,0.12506824731826782,0.006168616986147331
6418.7,0.12488933652639389,0.006147482769329703
6427.39,0.12464934587478638,0.006147419928045075
6436.1,0.1243472620844841,0.006105573985578474
6444.82,0.1239762082695961,0.006896513205444563
6453.55,0.12352260202169418,0.007287637590397382
6462.29,0.12296684831380844,0.0071999077826527145
6471.04,0.1222841739654541,0.00842885395552864
6479.81,0.12144492566585541,0.009646966106782756
6488.59,0.12041854113340378,0.009563792028384555
6497.38,0.11917329579591751,0.009116418934273444
6506.18,0.11767888814210892,0.008766157306463485
6515.0,0.11590651422739029,0.009198595172870127
6523.82,0.11383861303329468,0.009469391909278785
6532.66,0.11145690828561783,0.00971551857255935
6541.51,0.10875844210386276,0.009653603710757332
6550.37,0.10574838519096375,0.009570858010431208
6559.25,0.10243897885084152,0.009506927128760518
6568.13,0.09886424988508224,0.009345070941788934
6577.03,0.09505384415388107,0.009167286764222357
6585.94,0.09105829149484634,0.009193402742508244
6594.86,0.08693210780620575,0.009469193672945497
6603.8,0.08273064345121384,0.009410906187421084
6612.74,0.07852628082036972,0.008791264034168965
6621.7,0.0743727758526802,0.00848971685157861
6630.67,0.07033506780862808,0.008516611834723822
6639.65,0.06646733731031418,0.00846063702518957
6648.65,0.06281082332134247,0.007797528211653099
6657.66,0.05940403416752815,0.007897970999381089
6666.68,0.05626751482486725,0.007835194598163295
6675.71,0.0534069687128067,0.00832249668885717
6684.75,0.05081260949373245,0.008377787199195706
6693.81,0.04845672473311424,0.008327836446248137
6702.88,0.0463029146194458,0.008401146147789113
6711.96,0.04429901763796806,0.008805727276481188
6721.05,0.04238283634185791,0.009053045550551397
6730.15,0.040485333651304245,0.009162790310838328
6739.27,0.03853219375014305,0.009133068646761085
6748.4,0.036453984677791595,0.009064148912428011
6757.54,0.03418421000242233,0.009057206034585555
6766.7,0.0316627137362957,0.008962963308382288
6775.86,0.028850151225924492,0.00913084017700435
6785.04,0.025712206959724426,0.009231855983431866
6794.24,0.02223806455731392,0.009388553989208332
6803.44,0.018445581197738647,0.009419077222844427
6812.66,0.014358730986714363,0.009635798399347056
6821.89,0.010034127160906792,0.009819182472250785
6831.13,0.005544146057218313,0.010386539837648864
6840.38,0.0009782889392226934,0.010469312776075252
6849.65,-0.0035650895442813635,0.010012222054581684
6858.93,-0.007967936806380749,0.00969675495108759
6868.22,-0.012112255208194256,0.010185610307013104
6877.52,-0.015880469232797623,0.011384153190464812
6886.84,-0.019164349883794785,0.01315369944083864
