wvl,flux,err
4001.77,0.22981861233711243,0.2051813861570275
4007.19,0.31693488359451294,0.10169808181596178
4012.62,0.35605588555336,0.08601781510569484
4018.06,0.3393002152442932,0.07283342071654625
4023.5,0.2786884903907776,0.06972434210157777
4028.95,0.1986321657896042,0.06751633539650533
4034.41,0.12458847463130951,0.06348082701434633
4039.88,0.07283295691013336,0.061291090425445754
4045.35,0.046321745961904526,0.057711088907727165
4050.83,0.0373668409883976,0.055290458782273205
4056.32,0.03453730791807175,0.03537732418857744
4061.81,0.028932815417647362,0.03481800785877453
4067.32,0.016935354098677635,0.036339753970922935
4072.83,-0.0007903894293121994,0.03626797650426459
4078.34,-0.022421687841415405,0.03538367897847475
4083.87,-0.047304995357990265,0.03792797742364698
4089.4,-0.07571720331907272,0.038068024664069236
4094.94,-0.10753043740987778,0.0369204785083424
4100.49,-0.14047668874263763,0.03920103602198131
4106.04,-0.17020946741104126,0.037691585854807204
4111.61,-0.19230647385120392,0.040401037787195594
4117.18,-0.20417876541614532,0.044842121053178786
4122.75,-0.20638883113861084,0.04275694872188982
4128.34,-0.20157232880592346,0.04447512565608256
4133.93,-0.19239495694637299,0.04422518681398928
4139.53,-0.17993533611297607,0.04432240558254769
4145.14,-0.16384035348892212,0.04451869300380469
4150.75,-0.1441129893064499,0.0432890780844922
4156.38,-0.1228671446442604,0.04328954417139166
4162.01,-0.10482195019721985,0.04202221653651767
4167.65,-0.0950353592634201,0.043127906296222845
4173.29,-0.0958147719502449,0.042466051590480815
4178.95,-0.10449692606925964,0.04238945510159632
4184.61,-0.1141359731554985,0.04226558660816461
4190.28,-0.11718465387821198,0.03863226974383871
4195.95,-0.11008516699075699,0.03870612054036627
4201.64,-0.09588886797428131,0.03757232979638358
4207.33,-0.0830741599202156,0.03474554993460225
4213.03,-0.08069342374801636,0.035657803785050984
4218.74,-0.0929030030965805,0.03128006057508854
4224.45,-0.11596675217151642,0.027581114458721592
4230.18,-0.14007166028022766,0.028214143585698306
4235.91,-0.15459603071212769,0.025323047528762275
4241.64,-0.15449851751327515,0.025254434399623726
4247.39,-0.14323316514492035,0.025324515228130774
4253.14,-0.13078948855400085,0.025117628043398146
4258.91,-0.12777698040008545,0.025467515181880746
4264.68,-0.13914957642555237,0.030092692869125828
4270.45,-0.16099600493907928,0.02992381882857492
4276.24,-0.18284563720226288,0.029969370637195528
4282.03,-0.19338029623031616,0.030287008374765955
4287.83,-0.18698467314243317,0.03088598206474177
4293.64,-0.16657352447509766,0.030919785748881434
4299.46,-0.14172717928886414,0.03125799364631434
4305.28,-0.12323147058486938,0.03172498479966536
4311.12,-0.11720555275678635,0.031825803746165206
4316.96,-0.12272288650274277,0.032304119457361655
4322.8,-0.13340875506401062,0.03337782623096566
4328.66,-0.14242610335350037,0.03426336864920029
4334.52,-0.1470353603363037,0.03277668402338028
4340.4,-0.15046483278274536,0.032538264143955
4346.28,-0.1597215235233307,0.037690276414790475
4352.16,-0.18107177317142487,0.037565648000701085
4358.06,-0.21597984433174133,0.04031077228168429
4363.96,-0.25952503085136414,0.04175602181205402
4369.88,-0.3028503954410553,0.04239528491208591
4375.8,-0.3368813395500183,0.04093017211983463
4381.72,-0.35673728585243225,0.040013734517984574
4387.66,-0.36323869228363037,0.04158532829551562
4393.6,-0.36152297258377075,0.04190576950915936
4399.56,-0.35820138454437256,0.04161430154348444
4405.52,-0.35814622044563293,0.04323995227439211
4411.49,-0.3627079725265503,0.04288484428315042
4417.46,-0.3698038160800934,0.04258686339032413
4423.45,-0.3753626048564911,0.04225127069965666
4429.44,-0.3750039041042328,0.04921363581287417
4435.44,-0.36542415618896484,0.04940042019449838
4441.45,-0.34495797753334045,0.047982042258186815
4447.46,-0.3137178421020508,0.052538512294567984
4453.49,-0.2731935381889343,0.05685593033296486
4459.52,-0.22621934115886688,0.054955521796182814
4465.56,-0.17605020105838776,0.05531311735571431
4471.61,-0.1259099841117859,0.05684734708556723
4477.67,-0.07832241803407669,0.05469529955085441
4483.74,-0.034824371337890625,0.05328844285357565
4489.81,0.0038161994889378548,0.053972974827957945
4495.89,0.037418801337480545,0.05372708357557181
4501.98,0.06596261262893677,0.054167839089883936
4508.08,0.08994527161121368,0.05416593405195987
4514.19,0.11099909245967865,0.05360392841598241
4520.31,0.13224495947360992,0.05585992199829702
4526.43,0.15767844021320343,0.05579928177582721
4532.56,0.1906071901321411,0.055780887342428
4538.7,0.23148249089717865,0.055231064015323156
4544.85,0.27668896317481995,0.04903070699120399
4551.01,0.3192322254180908,0.048350275941622715
4557.17,0.35144808888435364,0.04850050265642292
4563.35,0.36892497539520264,0.04206865703426946
4569.53,0.37277334928512573,0.03569901446856767
4575.72,0.3699086904525757,0.036049296902053045
4581.92,0.3698318302631378,0.03573783147987344
4588.13,0.3800497353076935,0.030680451915507636
4594.34,0.4022151231765747,0.0293869904587334
4600.57,0.43134230375289917,0.02991382732693662
4606.8,0.458145409822464,0.030536824871803873
4613.04,0.47392815351486206,0.031157700187624107
4619.29,0.47460445761680603,0.02877348468714081
4625.55,0.462270587682724,0.028925392948508898
4631.81,0.44346559047698975,0.029041676276828507
4638.09,0.4251929223537445,0.025655193229065967
4644.37,0.4114813804626465,0.026906180883249038
4650.66,0.40177446603775024,0.026798499032020875
4656.96,0.39236482977867126,0.027232700586647476
4663.27,0.3792683780193329,0.02722328464118845
4669.59,0.3607974946498871,0.0262990535497308
4675.92,0.33831003308296204,0.02783683814252113
4682.25,0.3149869441986084,0.030116568903093412
4688.59,0.2935413718223572,0.030214440993349207
4694.94,0.27476370334625244,0.03385726621233054
4701.3,0.25740787386894226,0.03384886632257383
4707.67,0.23931391537189484,0.03375032232729876
4714.05,0.21865102648735046,0.03387386635477132
4720.44,0.1942708045244217,0.030580813079157675
4726.83,0.1650744080543518,0.030422137870975596
4733.24,0.128967747092247,0.033777424365859
4739.65,0.08326670527458191,0.03419211158393991
4746.07,0.02591303363442421,0.03355193875972624
4752.5,-0.0420185886323452,0.03297894232470166
4758.94,-0.11483736336231232,0.03360061994682819
4765.38,-0.1828048676252365,0.03362585542326932
4771.84,-0.23567795753479004,0.03402543502542798
4778.3,-0.26616254448890686,0.034613759167387625
4784.78,-0.2736785411834717,0.03382114031550624
4791.26,-0.2640458643436432,0.03359742158960698
4797.75,-0.2468346506357193,0.03159960635169336
4804.25,-0.23075923323631287,0.028605276998861902
4810.76,-0.22019104659557343,0.028724748904178404
4817.28,-0.21441978216171265,0.023769680905673347
4823.8,-0.20989394187927246,0.024163838833669342
4830.34,-0.20379187166690826,0.02516364619055753
4836.88,-0.196647509932518,0.02371971877766491
4843.43,-0.1921929121017456,0.023389815788612007
4849.99,-0.1947174221277237,0.024580911144905893
4856.56,-0.20555974543094635,0.0248067428092196
4863.14,-0.22104009985923767,0.024434576967423332
4869.73,-0.2332097291946411,0.02407417875932789
4876.33,-0.23307721316814423,0.023421526400938746
4882.94,-0.21449622511863708,0.02347741531242945
4889.55,-0.17663125693798065,0.023590225269681315
4896.17,-0.12359455972909927,0.023604485069398714
4902.81,-0.06196770817041397,0.030958106537474085
4909.45,0.0017813886515796185,0.03093124307275981
4916.1,0.06357873976230621,0.031895500832530586
4922.76,0.1211763396859169,0.031615726108548035
4929.43,0.17266161739826202,0.04043545550644954
4936.11,0.2149786502122879,0.04105035622880702
4942.79,0.2437259405851364,0.04177600806295078
4949.49,0.2547110319137573,0.042799233276910084
4956.2,0.2455756813287735,0.04207108840329262
4962.91,0.21730920672416687,0.04325179752343603
4969.63,0.17379741370677948,0.04303090294318821
4976.37,0.12017146497964859,0.042593593630362137
4983.11,0.06140116974711418,0.04067742599106177
4989.86,0.0010978862410411239,0.0416979526033863
4996.62,-0.057607732713222504,0.04133468118155231
5003.39,-0.11089310795068741,0.04225974279008789
5010.17,-0.15362507104873657,0.04284955133973807
5016.95,-0.18021920323371887,0.042323411074028816
5023.75,-0.18705925345420837,0.04226589740855483
5030.55,-0.17449629306793213,0.04014144895818697
5037.37,-0.14781789481639862,0.03919048387587174
5044.19,-0.11567602306604385,0.03857547720340274
5051.03,-0.08645845949649811,0.03886902369528211
5057.87,-0.06502591073513031,0.030774854626214675
5064.72,-0.05068732053041458,0.029870849407849377
5071.58,-0.038547810167074203,0.030080347626467604
5078.45,-0.02291710302233696,0.029421346730102566
5085.33,-0.0011800064239650965,0.029431867702427426
5092.22,0.024094611406326294,0.02770060492224724
5099.12,0.04603996500372887,0.027501833253684528
5106.03,0.05695611611008644,0.026423513168293705
5112.95,0.05250616744160652,0.027446270065892113
5119.87,0.034406114369630814,0.026412312727337822
5126.81,0.010010655969381332,0.024178162213716357
5133.75,-0.010707556270062923,0.024194650072755435
5140.71,-0.01973903179168701,0.026565195169440062
5147.67,-0.014223264530301094,0.026676326461570365
5154.65,0.0026508921291679144,0.028395113108021473
5161.63,0.023815521970391273,0.027185438415688903
5168.62,0.042266037315130234,0.02644827687559476
5175.62,0.054582007229328156,0.030847592582087874
5182.64,0.06247195601463318,0.03607420644156867
5189.66,0.0715300664305687,0.03608298521259887
5196.69,0.0880810022354126,0.03605386920343741
5203.73,0.11555024236440659,0.03684726275009599
5210.78,0.152386873960495,0.03651104188247541
5217.84,0.19248966872692108,0.03651963200441567
5224.91,0.22793248295783997,0.03718019713100829
5231.98,0.2525864541530609,0.03732576303652627
5239.07,0.2650332748889923,0.037187389424738565
5246.17,0.26877641677856445,0.03712274468331284
5253.28,0.27040937542915344,0.03737103122164448
5260.39,0.2760797142982483,0.03740605229716593
5267.52,0.28838953375816345,0.03659436082215184
5274.66,0.3052392303943634,0.034505448634814626
5281.8,0.3212280571460724,0.03477416657955701
5288.96,0.3309229612350464,0.03357399960672471
5296.12,0.3318559229373932,0.033646735591901976
5303.3,0.3260040581226349,0.034357044557801746
5310.48,0.3185223340988159,0.031054548956906028
5317.67,0.3146401643753052,0.02387755679634388
5324.88,0.31646862626075745,0.023851635701555466
5332.09,0.32154813408851624,0.02382729686434303
5339.32,0.3240315914154053,0.02247663122637556
5346.55,0.31786155700683594,0.019842033587460926
5353.79,0.3002023994922638,0.019908265711992307
5361.05,0.27303558588027954,0.019173509841046994
5368.31,0.24235211312770844,0.018312850004327516
5375.58,0.2149924635887146,0.018278618478670544
5382.86,0.19556263089179993,0.018360030993373338
5390.16,0.18477299809455872,0.01977331163976891
5397.46,0.18022465705871582,0.020833687135467373
5404.77,0.1786404699087143,0.020716584625915975
5412.09,0.17826133966445923,0.02057607408856365
5419.42,0.17953720688819885,0.020445052810288977
5426.77,0.1838870346546173,0.020235424896388944
5434.12,0.19147756695747375,0.020339038086636927
5441.48,0.19979028403759003,0.02138667904326019
5448.85,0.20414628088474274,0.022382823733701068
5456.23,0.200107604265213,0.021993474239042146
5463.62,0.18628047406673431,0.022605002200592184
5471.03,0.16561029851436615,0.022828487238917297
5478.44,0.1442762166261673,0.02211205223014034
5485.86,0.12830129265785217,0.021692836361435635
5493.29,0.12024685740470886,0.021514266444306263
5500.73,0.11769799888134003,0.02449992215748518
5508.18,0.11462604254484177,0.023924986273433674
5515.65,0.10482646524906158,0.02406934091060654
5523.12,0.08545643091201782,0.025530504975120064
5530.6,0.0584881454706192,0.02778017202485591
5538.09,0.029409484937787056,0.039925877572993075
5545.6,0.00398438423871994,0.040024889481465
5553.11,-0.014686337672173977,0.04026551794350266
5560.63,-0.027574021369218826,0.04028135514524041
5568.17,-0.03838688135147095,0.0404378895195879
5575.71,-0.05106714367866516,0.040468198005423256
5583.26,-0.06787648797035217,0.041321285788145375
5590.83,-0.08910363912582397,0.04073289512259327
5598.4,-0.11431124806404114,0.04241467610810115
5605.98,-0.14406397938728333,0.04227622710682967
5613.58,-0.18015480041503906,0.0421442929377754
5621.18,-0.2238963097333908,0.04428443154119599
5628.8,-0.27404582500457764,0.044631825653177463
5636.42,-0.32502779364585876,0.046319129850585
5644.06,-0.36856287717819214,0.045151047112560676
5651.71,-0.39675959944725037,0.04590608896669859
5659.36,-0.4064824879169464,0.05038134664658751
5667.03,-0.4014604389667511,0.04960919639195085
5674.71,-0.3906214237213135,0.04789744711062059
5682.39,-0.38357114791870117,0.03743573096402085
5690.09,-0.38518792390823364,0.037332718652370825
5697.8,-0.3928082287311554,0.03793655549645117
5705.52,-0.3974763751029968,0.03893632902070363
5713.25,-0.3888850510120392,0.04043596124283626
5720.99,-0.36116790771484375,0.04425850671054039
5728.74,-0.316280335187912,0.042529637967405214
5736.5,-0.2630981206893921,0.04266989356281372
5744.27,-0.21285973489284515,0.04231002540189999
5752.05,-0.1736421436071396,0.041966144289654936
5759.84,-0.14696712791919708,0.04223998407251166
5767.65,-0.12817959487438202,0.04140011004045043
5775.46,-0.11008988320827484,0.041410801208264736
5783.29,-0.08708260208368301,0.03756455840677033
5791.12,-0.05784102901816368,0.0371320465885212
5798.97,-0.024701884016394615,0.03728916171639203
5806.82,0.008566119708120823,0.03745574501746526
5814.69,0.03956335783004761,0.03790616826458549
5822.57,0.0677189975976944,0.039646820497556225
5830.45,0.0931704193353653,0.039277760929847055
5838.35,0.11490432173013687,0.03950946397471035
5846.26,0.12978726625442505,0.03791291672554954
5854.18,0.1341065764427185,0.03804869729067783
5862.11,0.12639616429805756,0.036523634729755415
5870.05,0.10975592583417892,0.03177173665656567
5878.01,0.09167240560054779,0.02944700858837424
5885.97,0.08102736622095108,0.027372527146347
5893.94,0.08340643346309662,0.028409961061533637
5901.93,0.09786629676818848,0.031722293004553884
5909.92,0.11682651937007904,0.031734645591112796
5917.93,0.1297275871038437,0.03200542094103098
5925.95,0.12819573283195496,0.032430885158132895
5933.97,0.11025864630937576,0.03310082775681557
5942.01,0.08092387765645981,0.03327978968715155
5950.06,0.049290236085653305,0.032179477761579964
5958.12,0.023788677528500557,0.028940867011008762
5966.2,0.008422122336924076,0.028931225614543237
5974.28,0.002044122200459242,0.025022691046870448
5982.37,0.00036152120446786284,0.027742051887898148
5990.48,-0.0005748661933466792,0.027434478508319093
5998.59,-0.0020888287108391523,0.0287314324450893
6006.72,-0.00295737711712718,0.02829626550727565
6014.85,-0.0014516442315652966,0.028896511626985182
6023.0,0.0023580798879265785,0.028894637865104024
6031.16,0.005853097420185804,0.029639694190729725
6039.33,0.005284658167511225,0.030391214219392018
6047.52,-0.0015983371995389462,0.029805551891889007
6055.71,-0.013527631759643555,0.03170180332780558
6063.91,-0.025853898376226425,0.03085493156639413
6072.13,-0.03284161910414696,0.031077325402591727
6080.35,-0.03073045238852501,0.031134746216827873
6088.59,-0.01982305198907852,0.03030524134496795
6096.84,-0.004193721804767847,0.033654325186931885
6105.1,0.010549715720117092,0.03362858290546516
6113.37,0.0200398787856102,0.03397132855150044
6121.65,0.022703828290104866,0.0341386979554275
6129.94,0.01932421140372753,0.034150558734522274
6138.25,0.011209898628294468,0.03205561439977513
6146.56,-0.0014582034200429916,0.03214117863600241
6154.89,-0.019926974549889565,0.03206212623664369
6163.23,-0.0453723706305027,0.031993858277443915
6171.58,-0.07691159099340439,0.03204289453457746
6179.94,-0.1105465367436409,0.03288559572329793
6188.31,-0.14010311663150787,0.0320184554922943
6196.69,-0.1598326563835144,0.03129162259182965
6205.09,-0.16719213128089905,0.030659430859470902
6213.5,-0.16402125358581543,0.03116847039420252
6221.91,-0.15551048517227173,0.0314357346539827
6230.34,-0.14722749590873718,0.031065200870428668
6238.78,-0.14221592247486115,0.030693931350364106
6247.23,-0.13965767621994019,0.031869453237304654
6255.7,-0.13588900864124298,0.027947986121724864
6264.17,-0.1270107477903366,0.03450146139972493
6272.66,-0.11138801276683807,0.033751385562446966
6281.16,-0.09065581113100052,0.03360735927476145
6289.67,-0.06863147020339966,0.0336310017186208
6298.19,-0.04903702065348625,0.03541946213972354
6306.72,-0.03349630534648895,0.035279755285987424
6315.26,-0.02100253663957119,0.035484852239588124
6323.82,-0.0090177608653903,0.03642368614656213
6332.38,0.004572948906570673,0.03614552374206175
6340.96,0.02012888714671135,0.035063347171665746
6349.55,0.03600817546248436,0.03661991456496324
6358.15,0.049682583659887314,0.04111269993639382
6366.77,0.059130795300006866,0.04113792587157587
6375.39,0.06353691220283508,0.037515170123735064
6384.03,0.06304577738046646,0.03801959825801113
6392.68,0.05767843872308731,0.03856356485688409
6401.34,0.04655986651778221,0.03867060881401614
6410.01,0.02806505747139454,0.03825218385570929
6418.7,0.0009933023247867823,0.03915085502559817
6427.39,-0.033743634819984436,0.0329833211268834
6436.1,-0.07241085916757584,0.032904732782384205
6444.82,-0.10869917273521423,0.03439813278411424
6453.55,-0.13571804761886597,0.03442125150614625
6462.29,-0.1484028697013855,0.03371893967936528
6471.04,-0.14538215100765228,0.03333299152994956
6479.81,-0.12935057282447815,0.034348927963422426
6488.59,-0.10581393539905548,0.03323317141812836
6497.38,-0.08068066090345383,0.03336050090421651
6506.18,-0.05778086930513382,0.03577037947919086
6515.0,-0.037420764565467834,0.03461394364539517
6523.82,-0.016737613826990128,0.0289976951109233
6532.66,0.008601934649050236,0.02928773841115414
6541.51,0.04154777154326439,0.032813806983664255
6550.37,0.08146297186613083,0.03202190275599025
6559.25,0.12342362105846405,0.03089379802805638
6568.13,0.15943169593811035,0.03031261631723189
6577.03,0.18187786638736725,0.031039972037656
6585.94,0.1867799609899521,0.0301946874034614
6594.86,0.17617399990558624,0.030706217471252333
6603.8,0.15755464136600494,0.030623648866904822
6612.74,0.14068545401096344,0.031081268457224788
6621.7,0.1328141987323761,0.03129155235121135
6630.67,0.13511539995670319,0.029978902531289976
6639.65,0.1420011669397354,0.029925672570758597
6648.65,0.14425787329673767,0.02786474463287174
6657.66,0.13438378274440765,0.029732894263536064
6666.68,0.1113680824637413,0.02930909334783702
6675.71,0.08195571601390839,0.027057372115777422
6684.75,0.05739075317978859,0.026885790811693778
6693.81,0.047173872590065,0.02416725226921178
6702.88,0.05337764695286751,0.02774813808619609
6711.96,0.0686836764216423,0.024735183337960945
6721.05,0.07988450676202774,0.024761295789086986
6730.15,0.07498203963041306,0.02471320457625938
6739.27,0.04993562772870064,0.023719859704469385
6748.4,0.011199305765330791,0.024802553746549577
6757.54,-0.02766660414636135,0.02651991052549743
6766.7,-0.05354045704007149,0.02659754316144735
6775.86,-0.0608752965927124,0.026737336563074567
6785.04,-0.054681967943906784,0.025137331525134553
6794.24,-0.0469651035964489,0.02511724605521151
6803.44,-0.049332741647958755,0.02487532276303373
6812.66,-0.06582286208868027,0.02554133287026965
6821.89,-0.09060177206993103,0.024857438611452547
6831.13,-0.11179079115390778,0.023758658753003342
6840.38,-0.11908374726772308,0.023813646287948197
6849.65,-0.1102803647518158,0.023649736416112645
6858.93,-0.09260690957307816,0.02325591689223351
6868.22,-0.07797622680664062,0.022850298594428563
6877.52,-0.07508338987827301,0.02001717282681348
6886.84,-0.08356466889381409,0.02043431191159915
6896.17,-0.09407702088356018,0.022664278768106713
6905.51,-0.09448981285095215,0.02428886675728582
6914.87,-0.07839339971542358,0.04057951721329318
6924.24,-0.05033903568983078,0.04026346564355152
6933.62,-0.024037271738052368,0.042284418457012245
6943.01,-0.013977408409118652,0.045294211996664745
6952.42,-0.025354966521263123,0.047393487186549725
6961.83,-0.048519548028707504,0.05181149804168571
