wvl,flux,err
4001.77,0.09730371087789536,0.06869627926585843
4007.19,0.1450502872467041,0.034817933300321666
4012.62,0.1675199270248413,0.03065572025437846
4018.06,0.1691858470439911,0.02603036472402849
4023.5,0.15864144265651703,0.023534919635424072
4028.95,0.1424580067396164,0.022371926515514624
4034.41,0.12255876511335373,0.022897014989762394
4039.88,0.09785012900829315,0.021412727812992038
4045.35,0.0680595114827156,0.020558387745604475
4050.83,0.03603970259428024,0.019764676347416157
4056.32,0.007160205394029617,0.014473766417026395
4061.81,-0.013967196457087994,0.014943975974163429
4067.32,-0.026676010340452194,0.014512851329888252
4072.83,-0.03454196825623512,0.014294751551283683
4078.34,-0.04321349039673805,0.013681061619136679
4083.87,-0.057136040180921555,0.014476822542209626
4089.4,-0.07764828205108643,0.016530264616273573
4094.94,-0.10388209670782089,0.017500434498499605
4100.49,-0.13480085134506226,0.01719410040045865
4106.04,-0.17050527036190033,0.017092127673315204
4111.61,-0.21165026724338531,0.016147831177226298
4117.18,-0.25654780864715576,0.016538044176088968
4122.75,-0.2998586595058441,0.01522197104486981
4128.34,-0.3336012363433838,0.015191144173918163
4133.93,-0.3505275249481201,0.01561071606398855
4139.53,-0.3489605784416199,0.01545164353273134
4145.14,-0.3343798518180847,0.015229571170634552
4150.75,-0.31719788908958435,0.015679178403953345
4156.38,-0.3071899116039276,0.01567608313144805
4162.01,-0.3083982765674591,0.015332084234891232
4167.65,-0.3171534240245819,0.01511359640860987
4173.29,-0.3249337673187256,0.014044160656723882
4178.95,-0.32392361760139465,0.012940484510679815
4184.61,-0.31168434023857117,0.010471926951467628
4190.28,-0.2923071086406708,0.010904671931497368
4195.95,-0.27354171872138977,0.0100411219118172
4201.64,-0.26193785667419434,0.009812779168785287
4207.33,-0.2596050202846527,0.00992417218558457
4213.03,-0.26370811462402344,0.009676392613830562
4218.74,-0.2690907120704651,0.009768475855316622
4224.45,-0.27146172523498535,0.009704701494723172
4230.18,-0.26922187209129333,0.00946198744044545
4235.91,-0.26303088665008545,0.009402200884460771
4241.64,-0.2541389465332031,0.009370452534922488
4247.39,-0.24296803772449493,0.009390541456436868
4253.14,-0.22919602692127228,0.009181302961681348
4258.91,-0.21263617277145386,0.009038463483142163
4264.68,-0.1943167895078659,0.008838771052216159
4270.45,-0.1761818677186966,0.00824211453211566
4276.24,-0.15991470217704773,0.008986996829270994
4282.03,-0.1459805965423584,0.008131590370162577
4287.83,-0.13328619301319122,0.007694465466510503
4293.64,-0.12037362158298492,0.009543699640436769
4299.46,-0.10682584345340729,0.009546014488964591
4305.28,-0.09393236041069031,0.010500994504675138
4311.12,-0.08391106873750687,0.010883268230145968
4316.96,-0.07859282940626144,0.010113659408312284
4322.8,-0.07821591198444366,0.01038597002329346
4328.66,-0.08169934898614883,0.010096674885775729
4334.52,-0.08789203315973282,0.009969608265711773
4340.4,-0.0968068540096283,0.010066852116775209
4346.28,-0.10964398086071014,0.010200971016863533
4352.16,-0.12760277092456818,0.010104722638586205
4358.06,-0.1503414660692215,0.009522386675855813
4363.96,-0.17515568435192108,0.009531902902232374
4369.88,-0.198248490691185,0.009292735279702195
4375.8,-0.2164623886346817,0.009907422207133754
4381.72,-0.22912462055683136,0.010253519796419565
4387.66,-0.23787890374660492,0.009812060196981923
4393.6,-0.24483197927474976,0.009742431645050483
4399.56,-0.2506590783596039,0.009792834783679623
4405.52,-0.25374504923820496,0.011441275105105824
4411.49,-0.2515013813972473,0.011681290256582922
4417.46,-0.24265038967132568,0.010987405170196708
4423.45,-0.22874101996421814,0.010882881669978361
4429.44,-0.21362346410751343,0.011762620235818366
4435.44,-0.200753316283226,0.011490560607328212
4441.45,-0.1904810667037964,0.011045828851473762
4447.46,-0.17919038236141205,0.010045869417224771
4453.49,-0.16118480265140533,0.012325917919364977
4459.52,-0.13248974084854126,0.010934327796923857
4465.56,-0.09361634403467178,0.011318376704043998
4471.61,-0.049716766923666,0.01118696475255414
4477.67,-0.0075735473074018955,0.010813358698899073
4483.74,0.02858111821115017,0.010606670669155509
4489.81,0.05960545688867569,0.01066293255076196
4495.89,0.09082061797380447,0.01133464884607151
4501.98,0.1281404048204422,0.01066338597412045
4508.08,0.1740022599697113,0.009963346433856017
4514.19,0.22548151016235352,0.010299584606704444
4520.31,0.27586492896080017,0.011000745243621006
4526.43,0.3185124099254608,0.011888655986746181
4532.56,0.35076066851615906,0.012305212264120307
4538.7,0.3746648132801056,0.0149346600858748
4544.85,0.39496439695358276,0.014791384245329215
4551.01,0.41540682315826416,0.015129527304263769
4557.17,0.4359959065914154,0.01628634304980336
4563.35,0.45311275124549866,0.016526757509923815
4569.53,0.46181949973106384,0.014885187982797959
4575.72,0.45930802822113037,0.015089226890914326
4581.92,0.44650790095329285,0.014901694854698732
4588.13,0.4273425340652466,0.014803309891649232
4594.34,0.4061604142189026,0.014518388078136789
4600.57,0.3850172162055969,0.013906220348417753
4606.8,0.36303961277008057,0.012138508004596683
4613.04,0.3374249339103699,0.013441017161835352
4619.29,0.30586519837379456,0.012540213860993285
4625.55,0.26820454001426697,0.010881900818012625
4631.81,0.22650974988937378,0.009840827191573184
4638.09,0.18328796327114105,0.010675355501639774
4644.37,0.14013926684856415,0.014150664444537515
4650.66,0.09658907353878021,0.014793058544450932
4656.96,0.051310017704963684,0.015059498743914428
4663.27,0.004031043499708176,0.015303849864570849
4669.59,-0.042832087725400925,0.016061304872497063
4675.92,-0.08409826457500458,0.01612558503545472
4682.25,-0.11350572854280472,0.016629757222698393
4688.59,-0.1265859752893448,0.016411469284213852
4694.94,-0.12261021882295609,0.016592885653675903
4701.3,-0.105167455971241,0.015761805293331
4707.67,-0.08076874166727066,0.014870337285767187
4714.05,-0.056335750967264175,0.01448253248335844
4720.44,-0.036886658519506454,0.014402848626790797
4726.83,-0.024525286629796028,0.013683886069730295
4733.24,-0.018887171521782875,0.010767058275339808
4739.65,-0.018773406744003296,0.010620663315741685
4746.07,-0.023374931886792183,0.010890629922793013
4752.5,-0.032681744545698166,0.009897669282135712
4758.94,-0.046669840812683105,0.009916840883605279
4765.38,-0.06400063633918762,0.008203162384220808
4771.84,-0.08140542358160019,0.008017543395816664
4778.3,-0.09407725185155869,0.008896984809939229
4784.78,-0.09764856845140457,0.00895869045839779
4791.26,-0.09015297144651413,0.008632492971312473
4797.75,-0.07337269932031631,0.008680359186968318
4804.25,-0.05231378972530365,0.008356750614976205
4810.76,-0.033210691064596176,0.008612991392124765
4817.28,-0.020976565778255463,0.008351597002668477
4823.8,-0.017463549971580505,0.008752322298210465
4830.34,-0.021342884749174118,0.0089789482468263
4836.88,-0.02959577925503254,0.008847900008836328
4843.43,-0.03942160680890083,0.009266775484213808
4849.99,-0.04946422949433327,0.009243497650338788
4856.56,-0.05968319997191429,0.009338047831826079
4863.14,-0.07020038366317749,0.010423675937437347
4869.73,-0.08010441064834595,0.010175626535978307
4876.33,-0.08716055750846863,0.01016356721143
4882.94,-0.08867304772138596,0.010148663315931384
4889.55,-0.08290649950504303,0.010153030676151144
4896.17,-0.07004920393228531,0.010194759422047955
4902.81,-0.05202135816216469,0.00958844706037728
4909.45,-0.03149009495973587,0.009752321907853998
4916.1,-0.010475385002791882,0.01098335731476108
4922.76,0.010067306458950043,0.012261623580630699
4929.43,0.029725849628448486,0.0129532831657663
4936.11,0.04752751439809799,0.013338836826532993
4942.79,0.06116150692105293,0.013192749675336896
4949.49,0.06733226031064987,0.01289656363608622
4956.2,0.06283711642026901,0.012388717322331657
4962.91,0.04616857320070267,0.012790287500170326
4969.63,0.01828683726489544,0.012252730440276256
4976.37,-0.017669951543211937,0.012240953922024105
4983.11,-0.05721369385719299,0.012801745895760759
4989.86,-0.09599083662033081,0.011937792968586379
4996.62,-0.13034965097904205,0.011324279356785481
5003.39,-0.15758857131004333,0.011642808420407918
5010.17,-0.17593933641910553,0.011436790740540508
5016.95,-0.18467679619789124,0.011598717356242473
5023.75,-0.18447481095790863,0.012330741635815719
5030.55,-0.17740727961063385,0.012918446096917145
5037.37,-0.16653715074062347,0.013060757521763295
5044.19,-0.15487143397331238,0.012429945908193584
5051.03,-0.14408525824546814,0.011199142352748522
5057.87,-0.13405866920948029,0.010192714630278673
5064.72,-0.12321185320615768,0.008995002659823462
5071.58,-0.10982108861207962,0.007997749880140556
5078.45,-0.09328340739011765,0.007836423327917666
5085.33,-0.07464675605297089,0.00787264677357997
5092.22,-0.05612120404839516,0.00786207167260207
5099.12,-0.039986949414014816,0.007248766450014668
5106.03,-0.027661742642521858,0.007044133372287183
5112.95,-0.01946208067238331,0.006963439987938828
5119.87,-0.015004283748567104,0.007170666672019965
5126.81,-0.013667449355125427,0.007189199683345911
5133.75,-0.014724154025316238,0.007299850169274322
5140.71,-0.01693822257220745,0.007207329028775134
5147.67,-0.01824631541967392,0.007417413257353172
5154.65,-0.01604449935257435,0.00775460122872628
5161.63,-0.008161044679582119,0.007736714426352498
5168.62,0.0060157086700201035,0.007743237979742323
5175.62,0.02512548863887787,0.007719685230882371
5182.64,0.04661650210618973,0.007298076915285947
5189.66,0.06817561388015747,0.007015669001772325
5196.69,0.08922675251960754,0.007496690364596648
5203.73,0.11090563237667084,0.007671251417192724
5210.78,0.13478760421276093,0.007741594688090101
5217.84,0.1610659956932068,0.00744856618223151
5224.91,0.18755799531936646,0.00734147717983024
5231.98,0.2103712260723114,0.007259441449619533
5239.07,0.2261313498020172,0.0074905981459473855
5246.17,0.23389624059200287,0.00733478253248519
5253.28,0.23600967228412628,0.006989502168863067
5260.39,0.2367582619190216,0.007327639605895615
5267.52,0.23984090983867645,0.007193682315665466
5274.66,0.2462531179189682,0.007066318439696798
5281.8,0.25395718216896057,0.006830795467707918
5288.96,0.25957268476486206,0.005683478901648711
5296.12,0.26076850295066833,0.0059230548395915
5303.3,0.25791624188423157,0.0060949301086722744
5310.48,0.25374096632003784,0.006608761200235743
5317.67,0.2513711750507355,0.006666562833298835
5324.88,0.2521263659000397,0.006453583985203294
5332.09,0.25452637672424316,0.006625799825982832
5339.32,0.25512877106666565,0.005628959221005137
5346.55,0.2505825459957123,0.00566378512302291
5353.79,0.23955422639846802,0.005742251763991302
5361.05,0.22330230474472046,0.005826511385401709
5368.31,0.2048780620098114,0.005514626575154205
5375.58,0.1873595416545868,0.00596498022282588
5382.86,0.1726074367761612,0.005927272708637882
5390.16,0.1609223634004593,0.005865726157328038
5397.46,0.15170298516750336,0.0063414909013568095
5404.77,0.14418838918209076,0.00618330913891029
5412.09,0.13801361620426178,0.006150542461349694
5419.42,0.13311521708965302,0.006429284710875529
5426.77,0.12937699258327484,0.0064971659845021335
5434.12,0.12642696499824524,0.006223473097417074
5441.48,0.12366991490125656,0.0060221259149014555
5448.85,0.12052445858716965,0.005636300776053896
5456.23,0.11652905493974686,0.005703302428889341
5463.62,0.11128570139408112,0.005841828340910175
5471.03,0.10439221560955048,0.005708097866745507
5478.44,0.09561818093061447,0.00549892851464101
5485.86,0.08517562597990036,0.005496801059096751
5493.29,0.07395128160715103,0.005449887653505253
5500.73,0.06326477229595184,0.005562946800381381
5508.18,0.05418815836310387,0.005664281435628069
5515.65,0.04682428389787674,0.005112507804787715
5523.12,0.04017578065395355,0.005589192248948443
5530.6,0.032708790153265,0.005686711531377428
5538.09,0.02348298393189907,0.00520472988955448
5545.6,0.01289242971688509,0.005302496682340638
5553.11,0.0025369967333972454,0.005293772837086923
5560.63,-0.005969190038740635,0.004946809890073205
5568.17,-0.012230657041072845,0.0045773601294985845
5575.71,-0.017527706921100616,0.004473361825105714
5583.26,-0.024116242304444313,0.004556626934403581
5590.83,-0.033677179366350174,0.004506800796065157
5598.4,-0.04608716070652008,0.004745552928135975
5605.98,-0.05952068045735359,0.005051339273266308
5613.58,-0.07172434031963348,0.005051293824847612
5621.18,-0.08158264309167862,0.005079143121989418
5628.8,-0.0899948924779892,0.005246746014491247
5636.42,-0.0990925058722496,0.005377317343681412
5644.06,-0.11076236516237259,0.005265906234816896
5651.71,-0.12527848780155182,0.005198300207079938
5659.36,-0.1412825882434845,0.005737213392059973
5667.03,-0.1570075899362564,0.006438785394018867
5674.71,-0.17145729064941406,0.007702865463728687
5682.39,-0.1847662776708603,0.008958038062145865
5690.09,-0.19724614918231964,0.0088887776713733
5697.8,-0.20786738395690918,0.008910812326822063
5705.52,-0.2139204442501068,0.009418423558977304
5713.25,-0.21230396628379822,0.01005647724391437
5720.99,-0.2018238604068756,0.012112941811855392
5728.74,-0.18468576669692993,0.012857272415640894
5736.5,-0.16566234827041626,0.01324006298645363
5744.27,-0.14904086291790009,0.014336441879243914
5752.05,-0.13531075417995453,0.01972320863870167
5759.84,-0.12017741799354553,0.026963208798903356
5767.65,-0.09715380519628525,0.05212409685959267
5775.46,-0.06264784932136536,0.05362498667609814
5783.29,-0.01987341418862343,0.05375581864124732
5791.12,0.02081575058400631,0.05369882744014677
5798.97,0.04710172116756439,0.05363168342083386
5806.82,0.05151299759745598,0.05362820979305299
5814.69,0.03687139227986336,0.05365567391737495
5822.57,0.015724269673228264,0.05369075410849964
5830.45,0.004299289546906948,0.05372448314813114
5838.35,0.013846393674612045,0.053903821474213194
5846.26,0.0449146144092083,0.05389172802457818
5854.18,0.08743526041507721,0.053865753915599286
5862.11,0.12674033641815186,0.053809275238802634
5870.05,0.15155597031116486,0.05340727835822734
5878.01,0.15921944379806519,0.0531881654547868
5885.97,0.1553087830543518,0.053085069102750994
5893.94,0.14879272878170013,0.05280300709343437
5901.93,0.14595986902713776,0.05103395545561786
5909.92,0.14733220636844635,0.04726234344194957
5917.93,0.14882302284240723,0.013351723474074224
5925.95,0.145771324634552,0.008731761799910125
5933.97,0.13662132620811462,0.008520718289816428
5942.01,0.1237172856926918,0.00847150442278192
5950.06,0.1111936941742897,0.007745027342436467
5958.12,0.10182356089353561,0.007382008862188779
5966.2,0.09539032727479935,0.0061516521471979705
5974.28,0.08967404067516327,0.006478076801078243
5982.37,0.08292008936405182,0.006816384837627953
5990.48,0.07580173015594482,0.006648324109419389
5998.59,0.0712021067738533,0.007904274101461774
6006.72,0.07192207872867584,0.007901944071708869
6014.85,0.07822583615779877,0.007885548841778037
6023.0,0.08698790520429611,0.007422141687695866
6031.16,0.09314491599798203,0.007418624346667218
6039.33,0.09245648980140686,0.007244366536411641
6047.52,0.08362717181444168,0.0072309281372266495
6055.71,0.0685337632894516,0.007175736174483128
6063.91,0.0505811981856823,0.007521010454446559
6072.13,0.03264607489109039,0.007556778385180198
6080.35,0.016112716868519783,0.008479198970763184
6088.59,0.001090739737264812,0.008860623271142185
6096.84,-0.01241020206362009,0.008679733594662842
6105.1,-0.02407767064869404,0.008683978988314035
6113.37,-0.033873651176691055,0.00864319547030016
6121.65,-0.04314366355538368,0.007998975798677489
6129.94,-0.055032629519701004,0.007998554676290385
6138.25,-0.07346300035715103,0.006729122547423735
6146.56,-0.10096173733472824,0.006809336785631562
6154.89,-0.13703681528568268,0.00707571148623024
6163.23,-0.17789138853549957,0.0071801352147563245
6171.58,-0.21831843256950378,0.007137928958031959
6179.94,-0.2542814314365387,0.006860376535144968
6188.31,-0.284633606672287,0.0068047712123468955
6196.69,-0.31089627742767334,0.007328803098551246
6205.09,-0.3354457914829254,0.007961052044330133
6213.5,-0.35938096046447754,0.008411354669166609
6221.91,-0.3817816972732544,0.00894857147320208
6230.34,-0.4006485939025879,0.010060027675366071
6238.78,-0.4144321382045746,0.009823250904741003
6247.23,-0.42329174280166626,0.011502291273283638
6255.7,-0.42881226539611816,0.012834200119510692
6264.17,-0.4325946867465973,0.013395538416197351
6272.66,-0.4349260628223419,0.01592695517495936
6281.16,-0.43438026309013367,0.015685796296732887
6289.67,-0.42866289615631104,0.015590551649103035
6298.19,-0.41582992672920227,0.015199706268524993
6306.72,-0.3949376940727234,0.014657870159613595
6315.26,-0.36577633023262024,0.014703081016539847
6323.82,-0.32818225026130676,0.01405430506222229
6332.38,-0.2820630669593811,0.01312466674804521
6340.96,-0.22781896591186523,0.011375854027133476
6349.55,-0.1676643192768097,0.01084092466010404
6358.15,-0.1056382954120636,0.010416175925858384
6366.77,-0.0463389977812767,0.009865567196244757
6375.39,0.006939840968698263,0.010297482191392853
6384.03,0.05427193641662598,0.010525361089557263
6392.68,0.09830041229724884,0.010421656153807426
6401.34,0.14219050109386444,0.010273034540006453
6410.01,0.1867264062166214,0.011763768417491893
6418.7,0.22908732295036316,0.011671641841836956
6427.39,0.2640826106071472,0.012017874540120791
6436.1,0.28787925839424133,0.011466075068266971
6444.82,0.30072563886642456,0.011656960797111262
6453.55,0.30757057666778564,0.011515429609900544
6462.29,0.3152432441711426,0.012136890108770214
6471.04,0.3281707465648651,0.010959039072521179
6479.81,0.34547895193099976,0.010380386211370595
6488.59,0.36145204305648804,0.009951382748649576
6497.38,0.3693210780620575,0.009251979147228504
6506.18,0.3658215403556824,0.008300982457303681
6515.0,0.35352569818496704,0.007957639064587869
6523.82,0.3394889533519745,0.008649954216109389
6532.66,0.3309972882270813,0.008178393886451061
6541.51,0.3315030038356781,0.008209975161115601
6550.37,0.3390812575817108,0.008892647565013624
6559.25,0.3483940660953522,0.008749503351946136
6568.13,0.3544005751609802,0.008470016984670878
6577.03,0.3553204834461212,0.009679673326413254
6585.94,0.35275861620903015,0.00909169551393127
6594.86,0.34942349791526794,0.00917826887855813
6603.8,0.3462437093257904,0.009269414971404823
6612.74,0.34116509556770325,0.00932546144461899
6621.7,0.3304005265235901,0.009173138185151074
6630.67,0.31121882796287537,0.009230949122388211
6639.65,0.28413984179496765,0.009452084510207643
6648.65,0.25300881266593933,0.00768641742699958
6657.66,0.22309571504592896,0.007830346815183837
6666.68,0.19827602803707123,0.007750719151478613
6675.71,0.17932216823101044,0.008246689077995579
6684.75,0.16405795514583588,0.008213392225199307
6693.81,0.14898261427879333,0.008727227630461439
6702.88,0.13127414882183075,0.00823986882104888
6711.96,0.1099921315908432,0.00921120425191945
6721.05,0.08629468828439713,0.016746525945512156
6730.15,0.06283704936504364,0.017104988672881776
6739.27,0.042715199291706085,0.02612836315346594
6748.4,0.028241503983736038,0.0278341694997618
6757.54,0.019421737641096115,0.027873454204336335
6766.7,0.0129145048558712,0.027996440771624706
6775.86,0.002293657511472702,0.028448090695042758
6785.04,-0.019762272015213966,0.02889458787666916
6794.24,-0.05756719037890434,0.029076999675631467
6803.44,-0.10863368958234787,0.029048033099525188
6812.66,-0.16299642622470856,0.029077032379620827
6821.89,-0.206240713596344,0.029068416747065576
6831.13,-0.22635047137737274,0.029076790365580255
6840.38,-0.22022013366222382,0.029564715661230645
6849.65,-0.19599798321723938,0.03005372552941994
6858.93,-0.16931070387363434,0.030498513668651618
6868.22,-0.1548704355955124,0.030546822196108693
6877.52,-0.15829801559448242,0.031012751998005437
6886.84,-0.1732940524816513,0.031140459213343845
6896.17,-0.18603380024433136,0.02674604537996155
6905.51,-0.18431004881858826,0.028144650898083302
6914.87,-0.16561263799667358,0.03455952894656266
6924.24,-0.1388934850692749,0.0329057433408586
6933.62,-0.1186753436923027,0.03491149491105267
