wvl,flux,err
4001.77,0.03258044272661209,0.027612759207083087
4007.19,0.03597855940461159,0.029658149568919965
4012.62,0.031159235164523125,0.02910891916499701
4018.06,0.02052985318005085,0.02855233721806282
4023.5,0.0076406169682741165,0.02527823275967323
4028.95,-0.004217957612127066,0.024373813781759148
4034.41,-0.012995066121220589,0.02561558568273088
4039.88,-0.018328851088881493,0.02387552531250273
4045.35,-0.021291688084602356,0.02506219882939343
4050.83,-0.023682471364736557,0.028763020013843763
4056.32,-0.027206093072891235,0.029012256252632856
4061.81,-0.03287523239850998,0.029518890730880903
4067.32,-0.04081360250711441,0.027998941566231034
4072.83,-0.050228364765644073,0.02812156701524341
4078.34,-0.059742141515016556,0.027508535131754705
4083.87,-0.0677398294210434,0.026283461525270776
4089.4,-0.07266660779714584,0.026489926279142227
4094.94,-0.0735531821846962,0.026777940609824556
4100.49,-0.07035515457391739,0.0270170765906836
4106.04,-0.06419601291418076,0.028019163384251592
4111.61,-0.057173408567905426,0.028462678594786375
4117.18,-0.05185072496533394,0.027241329314029894
4122.75,-0.05027647316455841,0.027456442591512857
4128.34,-0.053152091801166534,0.027786965888110454
4133.93,-0.059393543750047684,0.02782964574263068
4139.53,-0.06644908338785172,0.027496779600871928
4145.14,-0.07130445539951324,0.0266503985115347
4150.75,-0.07180195301771164,0.022458077857877602
4156.38,-0.06767523288726807,0.021139518874417392
4162.01,-0.06073401868343353,0.02091193103746414
4167.65,-0.05408458411693573,0.019974204436135446
4173.29,-0.05073295906186104,0.020142576019573234
4178.95,-0.05218614265322685,0.020073123201956165
4184.61,-0.057837001979351044,0.019070479061112762
4190.28,-0.0653495341539383,0.019185038777204393
4195.95,-0.07189576327800751,0.018737537400714866
4201.64,-0.07563718408346176,0.018319313517576676
4207.33,-0.07650648802518845,0.021131403092801124
4213.03,-0.07611271739006042,0.019537896465312204
4218.74,-0.07660704106092453,0.01984926382495425
4224.45,-0.07927744090557098,0.024028751415207494
4230.18,-0.08362553268671036,0.023329287217967298
4235.91,-0.08743193000555038,0.023907956503817926
4241.64,-0.08789955079555511,0.02398092211711833
4247.39,-0.08318941295146942,0.024096657601390393
4253.14,-0.07356058806180954,0.0240658661259988
4258.91,-0.06143801659345627,0.023902589226710607
4264.68,-0.050457775592803955,0.02396607107037038
4270.45,-0.04367463290691376,0.024005183835130076
4276.24,-0.042126260697841644,0.024005693154129603
4282.03,-0.04443535581231117,0.023684861175637385
4287.83,-0.04749040678143501,0.023770704780064742
4293.64,-0.04805351793766022,0.024020436374321517
4299.46,-0.04432635381817818,0.025440271238465713
4305.28,-0.03674799203872681,0.02568819707942199
4311.12,-0.027568746358156204,0.02564570475688379
4316.96,-0.019640451297163963,0.02333848475582764
4322.8,-0.014858088456094265,0.024305862217473086
4328.66,-0.013300444930791855,0.023916316713458338
4334.52,-0.013422638177871704,0.019751364434153186
4340.4,-0.013018050231039524,0.01908350358799552
4346.28,-0.010517256334424019,0.018543361398379064
4352.16,-0.005816853605210781,0.01876074174048451
4358.06,-0.0001877185859484598,0.018939678189062607
4363.96,0.004531691782176495,0.01814028607431003
4369.88,0.007117921486496925,0.01816161699748703
4375.8,0.007639125920832157,0.01833278372975746
4381.72,0.007440521381795406,0.018114578832822588
4387.66,0.008306109346449375,0.018382758414642247
4393.6,0.011393611319363117,0.018522612856295438
4399.56,0.016522441059350967,0.018327007914658088
4405.52,0.022164596244692802,0.019045814784933904
4411.49,0.02623279206454754,0.01693326889370259
4417.46,0.027102986350655556,0.01680388797652625
4423.45,0.02442239411175251,0.01711815157794552
4429.44,0.019232433289289474,0.018469066681040036
4435.44,0.013447863049805164,0.016956559945685106
4441.45,0.009013216942548752,0.015453010132816004
4447.46,0.007209080271422863,0.01599223694249932
4453.49,0.008405057713389397,0.016101199849577322
4459.52,0.012332598678767681,0.018484572810195717
4465.56,0.018515069037675858,0.019378804482863537
4471.61,0.02656061202287674,0.018837645648608518
4477.67,0.036094505339860916,0.01965343163335061
4483.74,0.04643760621547699,0.01992655922231545
4489.81,0.056322913616895676,0.019518794368745148
4495.89,0.0640513002872467,0.018770298794129257
4501.98,0.0679885745048523,0.018981378270057102
4508.08,0.06734775006771088,0.01906295153731624
4514.19,0.0627409964799881,0.02000638983270289
4520.31,0.056138645857572556,0.01950503756559962
4526.43,0.05016579478979111,0.019574462998426658
4532.56,0.04698065295815468,0.019261570316011153
4538.7,0.04740519821643829,0.020624186295778547
4544.85,0.05066094174981117,0.019466479204788084
4551.01,0.05490218475461006,0.019466488345543865
4557.17,0.05824395269155502,0.023411149026574932
4563.35,0.059748709201812744,0.0235489189145364
4569.53,0.05974036455154419,0.024504873751710905
4575.72,0.05939594283699989,0.022756519369396017
4581.92,0.0597684271633625,0.021938614278487433
4588.13,0.06089683249592781,0.021918957381247852
4594.34,0.06152894347906113,0.021913881957189192
4600.57,0.05967935174703598,0.02158235998135334
4606.8,0.053722791373729706,0.02217105522879652
4613.04,0.043419428169727325,0.023138746381392985
4619.29,0.030260568484663963,0.022825138900674634
4625.55,0.016898225992918015,0.022761522070267905
4631.81,0.005936084780842066,0.022539367642752058
4638.09,-0.0013849111273884773,0.021959254472707492
4644.37,-0.005638963542878628,0.02220825354261974
4650.66,-0.008934765122830868,0.023120182847771224
4656.96,-0.013706191442906857,0.02102895220130576
4663.27,-0.021458860486745834,0.0228132185431992
4669.59,-0.03205722197890282,0.023432461598231175
4675.92,-0.043932802975177765,0.019902436056205744
4682.25,-0.055035509169101715,0.019773792870443018
4688.59,-0.06403698027133942,0.018655679710428256
4694.94,-0.07091622054576874,0.018555027062687846
4701.3,-0.07677628099918365,0.018583362780787812
4707.67,-0.08295667916536331,0.020710407328521616
4714.05,-0.09003327041864395,0.02040853526996716
4720.44,-0.09735294431447983,0.02040295351912531
4726.83,-0.10341871529817581,0.019826320087454018
4733.24,-0.10697721689939499,0.018913215322993518
4739.65,-0.10800497233867645,0.019175395579255326
4746.07,-0.1081295758485794,0.019784647458797943
4752.5,-0.10993777215480804,0.019737514093061747
4758.94,-0.1155749186873436,0.019726975190514227
4765.38,-0.12531597912311554,0.01944529033326396
4771.84,-0.13704127073287964,0.018032324181627084
4778.3,-0.14683836698532104,0.018725671052358474
4784.78,-0.1508425921201706,0.017394764421314563
4791.26,-0.14705394208431244,0.01933654455811228
4797.75,-0.13654573261737823,0.01966929239372885
4804.25,-0.12308426946401596,0.019608302530511372
4810.76,-0.111471027135849,0.01962362642819032
4817.28,-0.10532034188508987,0.01871279045075304
4823.8,-0.10539812594652176,0.01855843162467205
4830.34,-0.1093587875366211,0.017156060366851463
4836.88,-0.11303400993347168,0.016639608515735257
4843.43,-0.11256725341081619,0.01653639751026563
4849.99,-0.10628064721822739,0.016679044676497473
4856.56,-0.09535159915685654,0.016829133252034046
4863.14,-0.08297879993915558,0.017114189949853306
4869.73,-0.07253343611955643,0.01672111490214508
4876.33,-0.06572415679693222,0.016137628308556407
4882.94,-0.06178095564246178,0.01756290533907459
4889.55,-0.058101117610931396,0.0181160542747821
4896.17,-0.051971081644296646,0.021714217773681332
4902.81,-0.04240839555859566,0.02096705284619599
4909.45,-0.031115813180804253,0.02143856941378549
4916.1,-0.021837221458554268,0.019985485611301576
4922.76,-0.018585097044706345,0.022864223780138682
4929.43,-0.02349393256008625,0.02319601245528138
4936.11,-0.035472672432661057,0.02313931598912199
4942.79,-0.05035170540213585,0.02369026680071895
4949.49,-0.06262093037366867,0.023840772174779996
4956.2,-0.0676213800907135,0.024440058742833528
4962.91,-0.06351915001869202,0.024821897732213605
4969.63,-0.05183807760477066,0.024853764108296827
4976.37,-0.0363902784883976,0.024769216654314644
4983.11,-0.021410232409834862,0.024709078224879926
4989.86,-0.009481639601290226,0.026182425933301695
4996.62,-0.0006680298247374594,0.026299903818806748
5003.39,0.007067881058901548,0.026551839829721636
5010.17,0.016362465918064117,0.027975297144339887
5016.95,0.028713135048747063,0.02819904290028012
5023.75,0.04352452978491783,0.025910767876999054
5030.55,0.05817718803882599,0.025883151630041058
5037.37,0.0694328099489212,0.02539679398146486
5044.19,0.07491927593946457,0.024375860439396744
5051.03,0.07444386929273605,0.02192738208375426
5057.87,0.07002794742584229,0.02162106422330288
5064.72,0.06499072909355164,0.021636878174966276
5071.58,0.06239880621433258,0.020960981431503888
5078.45,0.06374387443065643,0.020939333537891337
5085.33,0.06843826174736023,0.021291895243848065
5092.22,0.07432638108730316,0.02062312332177173
5099.12,0.07889800518751144,0.020591584535644122
5106.03,0.08057486265897751,0.020710061389176346
5112.95,0.07945667207241058,0.02011746983701811
5119.87,0.07722722738981247,0.017637574941885982
5126.81,0.07632475346326828,0.01881626590679893
5133.75,0.07887877523899078,0.01868253836713033
5140.71,0.08588340878486633,0.016401928494432762
5147.67,0.09694892168045044,0.014999309927125812
5154.65,0.11072767525911331,0.014829893944426846
5161.63,0.12550514936447144,0.020592691415879882
5168.62,0.13993848860263824,0.020748206104163162
5175.62,0.1532580405473709,0.02077083447660023
5182.64,0.16516686975955963,0.02043767570361941
5189.66,0.1754050850868225,0.020251381379509485
5196.69,0.18353533744812012,0.02042255798961779
5203.73,0.18880358338356018,0.021992041052839275
5210.78,0.19039291143417358,0.022115072231264125
5217.84,0.1878204196691513,0.020980903954177614
5224.91,0.18127043545246124,0.02093521680769294
5231.98,0.17169395089149475,0.02110288766347629
5239.07,0.16055075824260712,0.020974151252178542
5246.17,0.14949093759059906,0.020874801846556133
5253.28,0.13992252945899963,0.02106685192219487
5260.39,0.13280190527439117,0.020116570103399734
5267.52,0.12857092916965485,0.019728882411816553
5274.66,0.12734706699848175,0.018337771805505755
5281.8,0.12898723781108856,0.01829503316157257
5288.96,0.13311772048473358,0.018453041790687633
5296.12,0.13902048766613007,0.012951382778640736
5303.3,0.14554810523986816,0.012949380381074597
5310.48,0.15109412372112274,0.012813131659279707
5317.67,0.15390612185001373,0.014168579179516562
5324.88,0.15250909328460693,0.014233171304156713
5332.09,0.14622144401073456,0.014204967252501147
5339.32,0.13547395169734955,0.012113692002952127
5346.55,0.12181185185909271,0.01128378905582368
5353.79,0.107376828789711,0.01127164052001193
5361.05,0.09421896189451218,0.012191089895959278
5368.31,0.0836600586771965,0.01282371470359029
5375.58,0.07576388865709305,0.013050062858957653
5382.86,0.06947063654661179,0.013033021849800635
5390.16,0.06306064128875732,0.0134256932479674
5397.46,0.05490906909108162,0.013191044708052206
5404.77,0.044090405106544495,0.013800123991093923
5412.09,0.03073415718972683,0.01351427752581001
5419.42,0.015908723697066307,0.01374503822190617
5426.77,0.0011481255060061812,0.014004867412806087
5434.12,-0.012044238857924938,0.01590806065379346
5441.48,-0.02278188243508339,0.015338946670376538
5448.85,-0.030899111181497574,0.015668971693018677
5456.23,-0.03687538951635361,0.014716321514977846
5463.62,-0.04157279431819916,0.01427269049840559
5471.03,-0.045972395688295364,0.01435654214815192
5478.44,-0.050985321402549744,0.014357129549839647
5485.86,-0.05743367597460747,0.014304204400397764
5493.29,-0.06600993126630783,0.01517911402392299
5500.73,-0.07720938324928284,0.01446813633815694
5508.18,-0.0911678746342659,0.013602274060270644
5515.65,-0.10749875009059906,0.013580987919175204
5523.12,-0.12513068318367004,0.013978284125591857
5530.6,-0.14257697761058807,0.012906481924578633
5538.09,-0.15823222696781158,0.012875342298413287
5545.6,-0.1708839237689972,0.012641352397680104
5553.11,-0.17999838292598724,0.013764603848674272
5560.63,-0.1858794093132019,0.014022594378076908
5568.17,-0.18926171958446503,0.01394095574368388
5575.71,-0.19074319303035736,0.010930497374282654
5583.26,-0.19029217958450317,0.010924318589317038
5590.83,-0.18702292442321777,0.011225721465959954
5598.4,-0.1795039176940918,0.011484954764845491
5605.98,-0.1664314568042755,0.011319064744940809
5613.58,-0.14738905429840088,0.010921078301689846
5621.18,-0.12343671172857285,0.012863901353886225
5628.8,-0.09688945859670639,0.013297550696553743
5636.42,-0.07089677453041077,0.014524558040883434
5644.06,-0.04821998253464699,0.01641256784659369
5651.71,-0.03057541325688362,0.016294642939333467
5659.36,-0.01806478761136532,0.01641714558280082
5667.03,-0.009323038160800934,0.016450451582397357
5674.71,-0.002331844996660948,0.016476219006457852
5682.39,0.004774562083184719,0.017184979525622885
5690.09,0.013040301389992237,0.0174580167369099
5697.8,0.022413345053792,0.018783908186831802
5705.52,0.03203756362199783,0.018546182330006118
5713.25,0.04079027101397514,0.019039345603174006
5720.99,0.04782643914222717,0.019067459735333945
5728.74,0.05288498103618622,0.019165534286794416
5736.5,0.056281350553035736,0.01907858011211202
5744.27,0.05867685377597809,0.01979423493463099
5752.05,0.060799188911914825,0.019876503117464372
5759.84,0.06325880438089371,0.0197559325839495
5767.65,0.06650438904762268,0.018811310876691054
5775.46,0.0708288848400116,0.018685095435197696
5783.29,0.07638894766569138,0.017654765645782392
5791.12,0.08307688683271408,0.016257740143162412
5798.97,0.09044787287712097,0.016214306119845825
5806.82,0.09761036187410355,0.016205402642022013
5814.69,0.10341790318489075,0.016214449652059856
5822.57,0.10670377314090729,0.016795359182493474
5830.45,0.10668604075908661,0.01558125698267576
5838.35,0.10322294384241104,0.01591313315457791
5846.26,0.09681922197341919,0.01447027358726199
5854.18,0.08840662986040115,0.014412468138290212
5862.11,0.07897910475730896,0.01328983283174271
5870.05,0.06929740309715271,0.013747698361036
5878.01,0.05979330837726593,0.01682445410453752
5885.97,0.05075462535023689,0.016633978838208916
5893.94,0.04247273877263069,0.015807164152912865
5901.93,0.035391367971897125,0.0154744887708592
5909.92,0.030002985149621964,0.016694890337814676
5917.93,0.02645917795598507,0.017422493774896932
5925.95,0.02430633455514908,0.01730478516066678
5933.97,0.02238679677248001,0.017317003632085336
5942.01,0.01917085237801075,0.017857290293483912
5950.06,0.013415241613984108,0.017832450724513966
5958.12,0.004821288865059614,0.020717114162427545
5966.2,-0.0056579262018203735,0.02069792687469483
5974.28,-0.016035549342632294,0.02101357905758873
5982.37,-0.02417639084160328,0.02102231105874448
5990.48,-0.028762273490428925,0.02202603188666789
5998.59,-0.029992468655109406,0.022164016680876853
6006.72,-0.029677236452698708,0.022242441303002267
6014.85,-0.030508559197187424,0.022333822910620253
6023.0,-0.03493555635213852,0.0217560186621895
6031.16,-0.04410846531391144,0.02007454991627675
6039.33,-0.057404402643442154,0.02052606240640065
6047.52,-0.0727745071053505,0.020528219154204146
6055.71,-0.08761170506477356,0.02058163234196815
6063.91,-0.09994030743837357,0.019961164856525798
6072.13,-0.10903869569301605,0.021201228679080034
6080.35,-0.11539463698863983,0.02100375205902938
6088.59,-0.12015549093484879,0.02122896548759182
6096.84,-0.12419630587100983,0.020276917263150077
6105.1,-0.1275687962770462,0.020183636633257444
6113.37,-0.1294851303100586,0.018452842529711178
6121.65,-0.12886913120746613,0.01925522891215669
6129.94,-0.12511475384235382,0.01841292208521219
6138.25,-0.11858286708593369,0.018416015294941697
6146.56,-0.11057332158088684,0.016419088966109243
6154.89,-0.10267698764801025,0.017256205144795273
6163.23,-0.09602783620357513,0.01737661130422865
6171.58,-0.09072086215019226,0.016967336632109288
6179.94,-0.08585257828235626,0.01947764929790386
6188.31,-0.08012443035840988,0.01939300588485713
6196.69,-0.07267775386571884,0.0192406193000393
6205.09,-0.06366854161024094,0.019353742275703984
6213.5,-0.05428493022918701,0.01878483173994274
6221.91,-0.0461038276553154,0.019110271784021905
6230.34,-0.040147457271814346,0.017619580861631817
6238.78,-0.03627854585647583,0.018915968499364225
6247.23,-0.033126991242170334,0.020001428992799462
6255.7,-0.028776125982403755,0.019623278844347922
6264.17,-0.0218428373336792,0.01985470871634963
6272.66,-0.012334260158240795,0.01876450703807083
6281.16,-0.0019158560317009687,0.018551432345963504
6289.67,0.006723508704453707,0.01927672546948786
6298.19,0.011060354299843311,0.019690413736914946
6306.72,0.009948796592652798,0.019815294252053396
6315.26,0.004264163319021463,0.020413266035180705
6323.82,-0.0033486082684248686,0.020466182575554465
6332.38,-0.009459281340241432,0.02046857395072214
6340.96,-0.011236472986638546,0.0192804446399569
6349.55,-0.007423193193972111,0.019239094233325472
6358.15,0.0013368577929213643,0.019086678955494506
6366.77,0.013058134354650974,0.018961960993296525
6375.39,0.02541554719209671,0.01942590865845194
6384.03,0.03688916563987732,0.01825484112542104
6392.68,0.04724433273077011,0.01841423395000496
6401.34,0.05745590105652809,0.01721560568404418
6410.01,0.0689748078584671,0.01551752527504515
6418.7,0.08281905204057693,0.01608394119625631
6427.39,0.09882538765668869,0.016837164629142934
6436.1,0.11560696363449097,0.01695896014120057
6444.82,0.13086692988872528,0.01771450514582627
6453.55,0.14226274192333221,0.016990738016605667
6462.29,0.14820608496665955,0.016580483877205114
6471.04,0.14837315678596497,0.01650718375008876
6479.81,0.1437338888645172,0.016117429315340125
6488.59,0.1361517310142517,0.016009873879448844
6497.38,0.12772950530052185,0.020227323561771163
6506.18,0.12015482038259506,0.01905174084200184
6515.0,0.11428913474082947,0.018985923363331117
6523.82,0.11014959961175919,0.019876274756763047
6532.66,0.10714173316955566,0.019668354858107542
6541.51,0.10456641763448715,0.019885491896507564
6550.37,0.1020328551530838,0.0196125841356698
6559.25,0.09968534111976624,0.020094891275998176
6568.13,0.09812898933887482,0.021108963847940605
6577.03,0.09805700182914734,0.022719790811291905
6585.94,0.09980349242687225,0.022774736344473506
6594.86,0.10298024863004684,0.022368533292152125
6603.8,0.10642625391483307,0.02230668249128964
6612.74,0.10848718136548996,0.021808314343736566
6621.7,0.10758409649133682,0.022890154175619952
6630.67,0.10275164991617203,0.022482938135728815
6639.65,0.09398061037063599,0.022797130971448764
6648.65,0.08214260637760162,0.021427404558197465
6657.66,0.06861866265535355,0.021650071957803628
6666.68,0.05472332984209061,0.01937150591838474
6675.71,0.041296739131212234,0.02049098709938953
6684.75,0.02862919308245182,0.020930000722080226
6693.81,0.016719868406653404,0.023541609663663234
6702.88,0.005743753630667925,0.024068272858941885
6711.96,-0.0037029499653726816,0.023512306754389898
6721.05,-0.01066187210381031,0.023498749714842736
6730.15,-0.014262711629271507,0.0241309820593327
6739.27,-0.014323489740490913,0.02285104956805048
6748.4,-0.011738289147615433,0.02200591666837262
6757.54,-0.008391487412154675,0.021827673528535877
6766.7,-0.006497546564787626,0.022676644418544434
6775.86,-0.007669106591492891,0.02247285006074105
6785.04,-0.012112150900065899,0.02236231271215142
6794.24,-0.018425021320581436,0.02169974248807307
6803.44,-0.024087989702820778,0.02207297370568852
6812.66,-0.02657436765730381,0.021933033044595745
6821.89,-0.02443726733326912,0.022308440937092496
6831.13,-0.018007874488830566,0.02234767879049653
6840.38,-0.009282045997679234,0.021389852433731076
6849.65,-0.001096093445084989,0.020301708098480906
6858.93,0.0039590648375451565,0.02041764562059252
6868.22,0.004466165788471699,0.0156866245343415
6877.52,0.0004619654209818691,0.015194845284434601
6886.84,-0.006938763428479433,0.015540337584872605
6896.17,-0.016250576823949814,0.015564456288917249
6905.51,-0.02626258321106434,0.014909073328612476
6914.87,-0.03624383732676506,0.019242711058254744
