wvl,flux,err
4001.77,0.11712992191314697,0.22487008670218925
4007.19,0.15450119972229004,0.11726920724402559
4012.62,0.17837251722812653,0.1104502795615758
4018.06,0.18654361367225647,0.09393967992375994
4023.5,0.17968936264514923,0.09231112372260732
4028.95,0.1594328135251999,0.08908609952154663
4034.41,0.12712249159812927,0.0842587575240036
4039.88,0.08401508629322052,0.07898784589894539
4045.35,0.0327322855591774,0.07634183288957619
4050.83,-0.021759847179055214,0.07413065729497646
4056.32,-0.07193724066019058,0.057047491360002714
4061.81,-0.10973281413316727,0.055695644733366335
4067.32,-0.12993361055850983,0.05364310190590084
4072.83,-0.1325710564851761,0.049361803391075404
4078.34,-0.12377721816301346,0.049874488014735874
4083.87,-0.11328155547380447,0.05135635864577228
4089.4,-0.11024190485477448,0.05244445237387124
4094.94,-0.11884195357561111,0.052273419410367894
4100.49,-0.13628743588924408,0.04430253116656836
4106.04,-0.15415392816066742,0.0439915858651644
4111.61,-0.16282492876052856,0.041922337433854776
4117.18,-0.15646350383758545,0.042239729966806146
4122.75,-0.13650090992450714,0.047714013075726
4128.34,-0.11116118729114532,0.04599456901050227
4133.93,-0.09195678681135178,0.04637766318409748
4139.53,-0.08795318007469177,0.04826440513606061
4145.14,-0.10153436660766602,0.04952038898749246
4150.75,-0.12717655301094055,0.049156032540763894
4156.38,-0.1542978733778,0.04970218648117043
4162.01,-0.17211104929447174,0.04898810225340323
4167.65,-0.1748819351196289,0.04747298400114094
4173.29,-0.16413530707359314,0.04801461976022715
4178.95,-0.14732100069522858,0.04933919833049104
4184.61,-0.13381463289260864,0.04911810663510279
4190.28,-0.13007554411888123,0.047687126885282746
4195.95,-0.13685806095600128,0.04659936204670139
4201.64,-0.1495533287525177,0.04643040794303364
4207.33,-0.16125626862049103,0.04449069134016933
4213.03,-0.16696693003177643,0.0453991614479799
4218.74,-0.16634012758731842,0.044473037126609126
4224.45,-0.16375577449798584,0.043803341031537234
4230.18,-0.16562223434448242,0.03693901415195714
4235.91,-0.17649953067302704,0.03683460850460094
4241.64,-0.19611912965774536,0.03559810156281026
4247.39,-0.21912352740764618,0.032594621644110595
4253.14,-0.23727506399154663,0.030707613444971704
4258.91,-0.24371452629566193,0.029109323713620617
4264.68,-0.23630307614803314,0.02894310077365536
4270.45,-0.21915358304977417,0.02865370499570397
4276.24,-0.20077462494373322,0.030944502205502114
4282.03,-0.19046472012996674,0.029025407341874525
4287.83,-0.1939384639263153,0.027493508983480356
4293.64,-0.21087263524532318,0.029147789391495177
4299.46,-0.2350427806377411,0.029161617240031655
4305.28,-0.25709593296051025,0.034864492198615815
4311.12,-0.26886218786239624,0.034902461033195074
4316.96,-0.26668044924736023,0.03353960440816021
4322.8,-0.2531037926673889,0.033311037587433825
4328.66,-0.2354259043931961,0.03380722885929085
4334.52,-0.22252221405506134,0.033853920826579675
4340.4,-0.22079183161258698,0.03836128777929
4346.28,-0.23152975738048553,0.04298692288562004
4352.16,-0.2502920925617218,0.04250414337664689
4358.06,-0.269081711769104,0.04251276125231781
4363.96,-0.2797074615955353,0.041536597834786214
4369.88,-0.27760839462280273,0.041410086718353785
4375.8,-0.263812392950058,0.040833773841247124
4381.72,-0.24472135305404663,0.04141295357695499
4387.66,-0.22924169898033142,0.04283717298231442
4393.6,-0.22508271038532257,0.042926366460312095
4399.56,-0.23508204519748688,0.0445148611165397
4405.52,-0.2557590901851654,0.043889066574455654
4411.49,-0.2784510552883148,0.04384072264412383
4417.46,-0.29268795251846313,0.03925137496457057
4423.45,-0.2905155122280121,0.03941539446982679
4429.44,-0.26949360966682434,0.04207066715243811
4435.44,-0.23354285955429077,0.04159590215697752
4441.45,-0.19084931910037994,0.04343199395764144
4447.46,-0.15014678239822388,0.049109544362882174
4453.49,-0.1166272684931755,0.046089784296924174
4459.52,-0.09042174369096756,0.04102704685564582
4465.56,-0.06687069684267044,0.04047026622793536
4471.61,-0.0397525355219841,0.04027707846783525
4477.67,-0.004841377027332783,0.04005701819631786
4483.74,0.037727054208517075,0.04116417621305132
4489.81,0.08353368937969208,0.044825545383111724
4495.89,0.1266898512840271,0.043263181883761014
4501.98,0.1631753295660019,0.04150987815411515
4508.08,0.1933765858411789,0.041517923168742324
4514.19,0.22199052572250366,0.04359821160115708
4520.31,0.2552099823951721,0.042860421543750075
4526.43,0.2965283691883087,0.042842779358600334
4532.56,0.3437555730342865,0.04240876798403857
4538.7,0.3886288106441498,0.0424006323426187
4544.85,0.4199841022491455,0.04023446878065804
4551.01,0.428953617811203,0.04075754613708898
4557.17,0.4137190282344818,0.03810171269220116
4563.35,0.38119056820869446,0.03251190228294416
4569.53,0.3447311520576477,0.03685016433275761
4575.72,0.3183547556400299,0.03620982514504791
4581.92,0.3106326460838318,0.0346559200408818
4588.13,0.32077744603157043,0.03449924444367729
4594.34,0.33899566531181335,0.03441841549737032
4600.57,0.35115525126457214,0.029886317450716005
4606.8,0.34517529606819153,0.02796404119668335
4613.04,0.31665685772895813,0.027551918229071718
4619.29,0.2706061005592346,0.029600856730513093
4625.55,0.21899060904979706,0.029223923355887554
4631.81,0.17535129189491272,0.027986373726521612
4638.09,0.1487385779619217,0.030114496193283526
4644.37,0.14082071185112,0.036115811779834375
4650.66,0.145755335688591,0.03668458722253857
4656.96,0.15389800071716309,0.03790467197027069
4663.27,0.15635856986045837,0.037911728748089984
4669.59,0.1485268622636795,0.03765391139377873
4675.92,0.13104721903800964,0.03562460499397507
4682.25,0.10827917605638504,0.03541486561597051
4688.59,0.08531572669744492,0.03317646741494689
4694.94,0.06557077169418335,0.03328638918353785
4701.3,0.04978496953845024,0.03305676482410666
4707.67,0.03662664443254471,0.03479112041112528
4714.05,0.024059558287262917,0.035434927052809456
4720.44,0.010417708195745945,0.03529603681986418
4726.83,-0.0053762877359986305,0.03592887416093899
4733.24,-0.02437984012067318,0.03604288278236069
4739.65,-0.04783118888735771,0.03470588409551425
4746.07,-0.07690498232841492,0.039988528121633345
4752.5,-0.11135883629322052,0.039627396093323615
4758.94,-0.14823314547538757,0.03790232582212057
4765.38,-0.1815072000026703,0.03320077567184929
4771.84,-0.20377491414546967,0.03280534136088198
4778.3,-0.20880407094955444,0.03194244608475246
4784.78,-0.19491919875144958,0.03337873302037773
4791.26,-0.16641594469547272,0.03959402899422201
4797.75,-0.13247765600681305,0.03954073728599521
4804.25,-0.10361030697822571,0.0488799180336921
4810.76,-0.08715632557868958,0.05020213978097937
4817.28,-0.08406389504671097,0.050295690151371
4823.8,-0.08862944692373276,0.0517289536423669
4830.34,-0.09153205901384354,0.04977408090072
4836.88,-0.08465579152107239,0.04999885376687707
4843.43,-0.06536473333835602,0.05048710958582407
4849.99,-0.037922997027635574,0.050838648544743945
4856.56,-0.011389455758035183,0.050666734042902895
4863.14,0.005027147475630045,0.050177825365625574
4869.73,0.006773286499083042,0.047212258242186604
4876.33,-0.0035685435868799686,0.04696686329859117
4882.94,-0.017424622550606728,0.04848675524373204
4889.55,-0.02442525140941143,0.047459167679983226
4896.17,-0.017608657479286194,0.048238587577052405
4902.81,0.0032636679243296385,0.0476944747686874
4909.45,0.031495075672864914,0.04837339689012885
4916.1,0.05681591108441353,0.04488753617705919
4922.76,0.07013659179210663,0.044889756079521566
4929.43,0.06751491129398346,0.034722647702707686
4936.11,0.05135457590222359,0.03152925670181291
4942.79,0.02847934700548649,0.03172830104637191
4949.49,0.006108876317739487,0.02856613856375253
4956.2,-0.011609277687966824,0.028541026475425304
4962.91,-0.02526823803782463,0.03157203588266996
4969.63,-0.03905147314071655,0.03160544826204443
4976.37,-0.05757804214954376,0.029937461318057995
4983.11,-0.0826556608080864,0.029162946176644444
4989.86,-0.11188153177499771,0.02969151753678948
4996.62,-0.13944806158542633,0.029323357121424174
5003.39,-0.1589033007621765,0.030079998868265137
5010.17,-0.1662227362394333,0.028699347983049482
5016.95,-0.1616051197052002,0.028215776046025754
5023.75,-0.14911262691020966,0.02683612009034159
5030.55,-0.13452692329883575,0.027519412056789344
5037.37,-0.12253356724977493,0.0250621969808435
5044.19,-0.11495400965213776,0.02231348099126789
5051.03,-0.11041547358036041,0.02396765725135094
5057.87,-0.10587029159069061,0.025590035389639786
5064.72,-0.09859590232372284,0.025060898970235394
5071.58,-0.08777856081724167,0.024765690802305302
5078.45,-0.07475688308477402,0.025598350330322754
5085.33,-0.061999015510082245,0.026016748863765232
5092.22,-0.05151849612593651,0.023185543673201615
5099.12,-0.04368620365858078,0.022785040530053126
5106.03,-0.03708350658416748,0.02261638417384475
5112.95,-0.02939564548432827,0.023904644778925933
5119.87,-0.018766984343528748,0.02390326201430969
5126.81,-0.004725676495581865,0.023981006922463487
5133.75,0.01163883414119482,0.025000716450627247
5140.71,0.028631363064050674,0.02313563383996969
5147.67,0.044966261833906174,0.023582673479308612
5154.65,0.06078992784023285,0.023790769440310108
5161.63,0.07749046385288239,0.02323488887152521
5168.62,0.09700646996498108,0.022619191330321097
5175.62,0.12049808353185654,0.023455380514632498
5182.64,0.14745309948921204,0.023340578381519983
5189.66,0.17537060379981995,0.02192823233889231
5196.69,0.20071139931678772,0.022621943927965085
5203.73,0.22004318237304688,0.022321110797437364
5210.78,0.23132732510566711,0.022556919564456022
5217.84,0.2346009761095047,0.021542658045242018
5224.91,0.23183877766132355,0.022379167138419066
5231.98,0.2261250913143158,0.021992577540958187
5239.07,0.2204863429069519,0.02272841313230583
5246.17,0.21697506308555603,0.021254683658875076
5253.28,0.21619993448257446,0.02197991357663683
5260.39,0.2174995392560959,0.022313503614834935
5267.52,0.21959306299686432,0.021779538816061417
5274.66,0.2213885337114334,0.0217608929939327
5281.8,0.22263085842132568,0.02151551986059873
5288.96,0.22414346039295197,0.021656415392191136
5296.12,0.2275378704071045,0.024267540004325506
5303.3,0.23454956710338593,0.02481218488502985
5310.48,0.24615490436553955,0.024860089414425027
5317.67,0.26193732023239136,0.025160633143598416
5324.88,0.2798781394958496,0.024391977644187223
5332.09,0.2966427505016327,0.02404183624291984
5339.32,0.3086278736591339,0.02406348105993764
5346.55,0.3128589987754822,0.0236274912748706
5353.79,0.3079882264137268,0.02377273096010595
5361.05,0.2944799065589905,0.02481895606619863
5368.31,0.27435174584388733,0.024477870651622238
5375.58,0.250294029712677,0.02310267249157438
5382.86,0.2248411774635315,0.023354691982656522
5390.16,0.19977648556232452,0.02293218004186161
5397.46,0.17621752619743347,0.023065702195383782
5404.77,0.15475371479988098,0.02093262026678671
5412.09,0.13602928817272186,0.02176806303529914
5419.42,0.1209120824933052,0.02197916823064919
5426.77,0.11029641330242157,0.021950732599935227
5434.12,0.10472055524587631,0.019741127795754425
5441.48,0.10385775566101074,0.018982006943035278
5448.85,0.10653147101402283,0.01899491095714619
5456.23,0.11104713380336761,0.018823702383412848
5463.62,0.11575092375278473,0.018919691033127694
5471.03,0.11943181604146957,0.01952265372223624
5478.44,0.12125185877084732,0.021014810282067947
5485.86,0.12030722945928574,0.021009141192850942
5493.29,0.11505077034235,0.021831360392917564
5500.73,0.103164903819561,0.019483622562112585
5508.18,0.08216221630573273,0.02003529432397075
5515.65,0.05055563524365425,0.020016585988765344
5523.12,0.00926140882074833,0.019422976338150887
5530.6,-0.038094911724328995,0.019213668625810792
5538.09,-0.08578099310398102,0.018865828887375764
5545.6,-0.12791961431503296,0.018790572203372404
5553.11,-0.16052734851837158,0.01809994210748953
5560.63,-0.18347692489624023,0.01754557980259514
5568.17,-0.20029836893081665,0.019777284284895353
5575.71,-0.21648362278938293,0.019858338880947873
5583.26,-0.23696814477443695,0.020227252680694616
5590.83,-0.26366421580314636,0.019473513021184427
5598.4,-0.2944081425666809,0.019562373521849294
5605.98,-0.3241196870803833,0.01997262466028847
5613.58,-0.3471059203147888,0.019229151290656703
5621.18,-0.3595264256000519,0.01918168500548115
5628.8,-0.3610617220401764,0.01910699139447419
5636.42,-0.35435864329338074,0.017136201367484973
5644.06,-0.343196839094162,0.019633211857399496
5651.71,-0.3301641643047333,0.0200677055625177
5659.36,-0.31526151299476624,0.020210849306396446
5667.03,-0.2961277365684509,0.019900184119522664
5674.71,-0.2699539065361023,0.0192578147961311
5682.39,-0.23570290207862854,0.018563475132203765
5690.09,-0.19529569149017334,0.01745353004645456
5697.8,-0.1534411609172821,0.017529882350718333
5705.52,-0.11548462510108948,0.01492176719279068
5713.25,-0.08491066098213196,0.015841970773312296
5720.99,-0.061689987778663635,0.01619465037821504
5728.74,-0.04244321957230568,0.01637337920895457
5736.5,-0.022355135530233383,0.016214314619137717
5744.27,0.002206902951002121,0.016318482806910065
5752.05,0.03181251138448715,0.02114384389414082
5759.84,0.06384698301553726,0.02175079549604665
5767.65,0.09420395642518997,0.021675834009907843
5775.46,0.11954940855503082,0.021995701478113156
5783.29,0.13934685289859772,0.022864062847878484
5791.12,0.1555957943201065,0.021853310040470475
5798.97,0.17130129039287567,0.030671156832146933
5806.82,0.18777258694171906,0.034666314783435126
5814.69,0.20308785140514374,0.03736800885547253
5822.57,0.2121962606906891,0.04783977489033187
5830.45,0.20930568873882294,0.04813729993646751
5838.35,0.19113098084926605,0.04920742923447517
5846.26,0.15935102105140686,0.04922223055025827
5854.18,0.12094388157129288,0.04947677877752388
5862.11,0.08592994511127472,0.04888440222706704
5870.05,0.06354771554470062,0.048871435206781826
5878.01,0.058634478598833084,0.04847049999016327
5885.97,0.06996304541826248,0.04843517754472056
5893.94,0.09106985479593277,0.04890944925561984
5901.93,0.11338581144809723,0.04802941804084542
5909.92,0.12963342666625977,0.048225983054466785
5917.93,0.13644151389598846,0.04838063149183744
5925.95,0.13453003764152527,0.048265619645919515
5933.97,0.12730447947978973,0.04760819594349218
5942.01,0.1184953898191452,0.04825563876419907
5950.06,0.11047659069299698,0.04336170693900512
5958.12,0.10388663411140442,0.041518190577420414
5966.2,0.0985046997666359,0.03962157656071972
5974.28,0.09451025724411011,0.024458554286975635
5982.37,0.09299764037132263,0.023909671991931353
5990.48,0.09539919346570969,0.024241588119668776
5998.59,0.10204470902681351,0.02424398240266454
6006.72,0.1109124943614006,0.023395320263582813
6014.85,0.11748523265123367,0.02281550480988674
6023.0,0.1162273958325386,0.023041307026575007
6031.16,0.10290122032165527,0.02313527220212564
6039.33,0.07677031308412552,0.023469732720359262
6047.52,0.04127373918890953,0.021458905220577577
6055.71,0.0029971273615956306,0.02128758684332965
6063.91,-0.0311867855489254,0.02094360104096463
6072.13,-0.05676989629864693,0.020635196263913674
6080.35,-0.07306089252233505,0.020636521907802335
6088.59,-0.08305411040782928,0.02029324989091749
6096.84,-0.09123782068490982,0.017727665229895922
6105.1,-0.10121533274650574,0.01800184515744751
6113.37,-0.11402209103107452,0.01562521272826794
6121.65,-0.1281188428401947,0.01611902310086012
6129.94,-0.14088277518749237,0.01607569743659543
6138.25,-0.15062907338142395,0.01610037179085515
6146.56,-0.15785440802574158,0.017961910559913277
6154.89,-0.16511735320091248,0.020047518089935393
6163.23,-0.1753392219543457,0.02005349556271706
6171.58,-0.18972313404083252,0.020063914669994045
6179.94,-0.20634537935256958,0.01948862039699871
6188.31,-0.2203376293182373,0.019475026021744755
6196.69,-0.22566509246826172,0.018692864751074477
6205.09,-0.21766921877861023,0.019248083579591447
6213.5,-0.19517141580581665,0.019822116724910098
6221.91,-0.1612483710050583,0.02258348440929309
6230.34,-0.12204540520906448,0.022754206873925396
6238.78,-0.08480533957481384,0.022550504109225135
6247.23,-0.055399756878614426,0.022702970527221495
6255.7,-0.03679777681827545,0.02358717983171896
6264.17,-0.02890782803297043,0.023074049257212563
6272.66,-0.02925855666399002,0.02337250817968608
6281.16,-0.03449142351746559,0.022358142843436787
6289.67,-0.04147524759173393,0.022879013158262004
6298.19,-0.04794862121343613,0.023695113469653185
6306.72,-0.052575964480638504,0.021365829712224595
6315.26,-0.054722730070352554,0.01966507886900252
6323.82,-0.054261356592178345,0.019741534946943577
6332.38,-0.05154187232255936,0.01973730987073657
6340.96,-0.04743744060397148,0.02110152751517885
6349.55,-0.04327474161982536,0.023877488900315307
6358.15,-0.04050741344690323,0.02426474390524526
6366.77,-0.04021408036351204,0.0243387275978131
6375.39,-0.04264026880264282,0.024075807228310042
6384.03,-0.04700715094804764,0.02310498300481753
6392.68,-0.05170983076095581,0.02379682397931126
6401.34,-0.054822925478219986,0.023389090143243214
6410.01,-0.05469012260437012,0.023938450703821796
6418.7,-0.05037744343280792,0.023647995197803452
6427.39,-0.041908226907253265,0.023665445630786465
6436.1,-0.03023223578929901,0.02370756460930345
6444.82,-0.017107393592596054,0.023739827489882234
6453.55,-0.004783710464835167,0.023146589995324377
6462.29,0.004447540733963251,0.022443848747831535
6471.04,0.008894997648894787,0.022309248942441434
6479.81,0.008186985738575459,0.022341851745286082
6488.59,0.0037853941321372986,0.022979342081635927
6497.38,-0.0010316577972844243,0.02302843663892193
6506.18,-0.0020151666831225157,0.02205467653812143
6515.0,0.004561404697597027,0.01861281452308584
6523.82,0.020257696509361267,0.021268432676298372
6532.66,0.04352567717432976,0.020720270152042804
6541.51,0.06991682946681976,0.021012455025501704
6550.37,0.09373997896909714,0.019489167777475568
6559.25,0.11042098701000214,0.018515536273054353
6568.13,0.11841252446174622,0.01854010490328965
6577.03,0.11994502693414688,0.018605368899560847
6585.94,0.11970597505569458,0.019046782572355456
6594.86,0.12236388027667999,0.019965834524650575
6603.8,0.12991012632846832,0.020240671976173234
6612.74,0.14025183022022247,0.021615466545723595
6621.7,0.14795196056365967,0.023055346030829482
6630.67,0.1466994732618332,0.023656104263370212
6639.65,0.13251781463623047,0.024318400057151038
6648.65,0.10592528432607651,0.025890446767646513
6657.66,0.07208266109228134,0.02468577725613616
6666.68,0.0386238768696785,0.024812757284086846
6675.71,0.012336211279034615,0.025212015838960537
6684.75,-0.003681996138766408,0.024430590725398722
6693.81,-0.01099720411002636,0.024052462669957413
6702.88,-0.014494635164737701,0.024203128026552834
6711.96,-0.01961803436279297,0.023376701184650153
6721.05,-0.02952117659151554,0.022743390385098164
6730.15,-0.04370364174246788,0.02291110632095443
6739.27,-0.058707814663648605,0.02228592812990251
6748.4,-0.07024538516998291,0.022619544718543955
6757.54,-0.07562322169542313,0.022103928890408586
6766.7,-0.07497664541006088,0.020997705383886713
6775.86,-0.07079140841960907,0.020260242792105223
6785.04,-0.06616242974996567,0.018867045418135147
6794.24,-0.06294751912355423,0.016883116227573675
6803.44,-0.06098083034157753,0.015991965902041102
6812.66,-0.05875556543469429,0.015368193203262912
6821.89,-0.055119190365076065,0.013775949696946496
6831.13,-0.050714001059532166,0.01371269546161512
6840.38,-0.048127468675374985,0.013745394059923767
6849.65,-0.050466254353523254,0.014082470577606384
6858.93,-0.05912521481513977,0.014021382494463
6868.22,-0.07210744917392731,0.013694991065437609
6877.52,-0.08414854854345322,0.01605037170215044
6886.84,-0.08886241912841797,0.016834029465587753
6896.17,-0.08190229535102844,0.016810135637255485
6905.51,-0.06358924508094788,0.018216971227446956
6914.87,-0.039288122206926346,0.027056723781405254
6924.24,-0.017291268333792686,0.028484511514258754
6933.62,-0.004880413878709078,0.02974460977928885
6943.01,-0.004668054170906544,0.031012845524395895
6952.42,-0.0130514120683074,0.03263894795420876
